-4300
-4280
-4290
-4280
-4270
-4270
-4240
-4240
-4210
-4200
-4170
-4150
-4140
-4120
-4090
-4060
-4040
-4020
-3970
-3950
-3910
-3870
-3850
-3790
-3780
-3750
-3720
-3700
-3650
-3650
-3620
-3610
-3590
-3570
-3550
-3530
-3510
-3510
-3500
-3510
-3510
-3510
-3510
-3520
-3530
-3540
-3540
-3570
-3570
-3600
-3620
-3640
-3660
-3680
-3710
-3730
-3770
-3800
-3820
-3870
-3880
-3940
-3960
-3990
-4040
-4050
-4090
-4100
-4130
-4140
-4160
-4190
-4210
-4230
-4250
-4240
-4270
-4270
-4260
-4280
-4270
-4280
-4270
-4260
-4260
-4250
-4260
-4240
-4230
-4200
-4160
-4160
-4120
-4090
-4070
-4040
-4010
-3980
-3960
-3920
-3880
-3870
-3830
-3790
-3780
-3740
-3720
-3680
-3680
-3640
-3620
-3610
-3570
-3580
-3550
-3530
-3530
-3510
-3510
-3510
-3510
-3510
-3510
-3530
-3520
-3530
-3570
-3550
-3590
-3600
-3620
-3640
-3650
-3700
-3710
-3740
-3760
-3800
-3820
-3850
-3880
-3920
-3940
-3980
-3990
-4030
-4060
-4090
-4130
-4150
-4180
-4210
-4210
-4240
-4230
-4260
-4260
-4270
-4290
-4270
-4270
-4270
-4260
-4270
-4240
-4240
-4230
-4210
-4200
-4170
-4150
-4140
-4110
-4100
-4070
-4050
-4000
-3960
-3940
-3900
-3880
-3840
-3820
-3790
-3750
-3740
-3700
-3670
-3660
-3630
-3610
-3580
-3570
-3550
-3530
-3520
-3510
-3510
-3510
-3510
-3520
-3510
-3510
-3520
-3530
-3540
-3540
-3560
-3570
-3590
-3610
-3620
-3660
-3670
-3700
-3740
-3750
-3780
-3820
-3860
-3880
-3920
-3950
-3980
-4010
-4050
-4060
-4090
-4110
-4130
-4160
-4170
-4200
-4200
-4240
-4230
-4250
-4270
-4270
-4280
-4270
-4270
-4270
-4250
-4250
-4230
-4210
-4210
-4190
-4180
-4160
-4140
-4110
-4080
-4060
-4040
-4020
-3990
-3930
-3910
-3890
-3850
-3820
-3780
-3770
-3730
-3690
-3670
-3640
-3630
-3600
-3570
-3560
-3530
-3530
-3520
-3510
-3510
-3490
-3510
-3500
-3500
-3500
-3510
-3520
-3530
-3540
-3560
-3570
-3600
-3600
-3630
-3650
-3650
-3700
-3710
-3750
-3780
-3790
-3840
-3850
-3900
-3930
-3970
-4010
-4030
-4060
-4090
-4100
-4130
-4130
-4160
-4190
-4190
-4230
-4220
-4240
-4260
-4250
-4270
-4250
-4250
-4260
-4250
-4250
-4220
-4230
-4210
-4190
-4180
-4150
-4130
-4110
-4080
-4060
-4020
-4000
-3970
-3940
-3910
-3880
-3850
-3810
-3790
-3760
-3720
-3700
-3660
-3640
-3620
-3580
-3570
-3550
-3540
-3520
-3500
-3500
-3480
-3500
-3490
-3470
-3500
-3490
-3510
-3510
-3530
-3550
-3550
-3570
-3580
-3590
-3630
-3640
-3690
-3710
-3730
-3750
-3790
-3820
-3830
-3880
-3910
-3930
-3970
-3980
-4010
-4040
-4060
-4090
-4090
-4130
-4140
-4160
-4190
-4210
-4230
-4250
-4250
-4270
-4250
-4260
-4260
-4240
-4240
-4240
-4220
-4220
-4190
-4190
-4160
-4130
-4120
-4080
-4070
-4030
-4010
-3980
-3950
-3930
-3890
-3870
-3830
-3790
-3780
-3720
-3710
-3670
-3650
-3620
-3590
-3580
-3560
-3540
-3530
-3510
-3510
-3490
-3490
-3490
-3470
-3490
-3480
-3500
-3500
-3500
-3530
-3510
-3540
-3560
-3580
-3600
-3620
-3640
-3670
-3690
-3730
-3740
-3780
-3800
-3820
-3860
-3880
-3930
-3950
-3970
-4010
-4030
-4060
-4080
-4110
-4130
-4150
-4160
-4180
-4190
-4210
-4200
-4230
-4230
-4240
-4230
-4230
-4230
-4220
-4210
-4200
-4180
-4170
-4150
-4140
-4120
-4100
-4090
-4040
-4020
-3990
-3960
-3940
-3890
-3860
-3850
-3800
-3790
-3740
-3730
-3690
-3660
-3650
-3610
-3610
-3570
-3550
-3560
-3520
-3510
-3500
-3480
-3480
-3470
-3470
-3470
-3460
-3470
-3470
-3500
-3500
-3520
-3550
-3530
-3570
-3590
-3610
-3640
-3660
-3680
-3710
-3730
-3770
-3780
-3830
-3850
-3880
-3910
-3940
-3970
-3990
-4020
-4040
-4060
-4100
-4120
-4150
-4180
-4200
-4230
-4220
-4240
-4240
-4210
-4240
-4220
-4220
-4220
-4200
-4200
-4180
-4180
-4160
-4140
-4130
-4090
-4090
-4050
-4020
-4010
-3970
-3960
-3920
-3890
-3870
-3810
-3800
-3750
-3720
-3700
-3660
-3650
-3610
-3600
-3580
-3560
-3560
-3510
-3500
-3480
-3460
-3450
-3450
-3440
-3460
-3440
-3460
-3460
-3460
-3480
-3470
-3490
-3490
-3530
-3550
-3560
-3600
-3620
-3650
-3670
-3690
-3730
-3750
-3810
-3830
-3860
-3910
-3930
-3970
-4000
-4030
-4050
-4070
-4100
-4120
-4130
-4160
-4160
-4190
-4200
-4200
-4220
-4210
-4240
-4230
-4230
-4230
-4200
-4220
-4190
-4190
-4170
-4160
-4140
-4110
-4100
-4080
-4060
-4030
-3990
-3980
-3960
-3900
-3910
-3850
-3830
-3790
-3750
-3730
-3700
-3680
-3640
-3620
-3600
-3570
-3550
-3540
-3520
-3520
-3480
-3480
-3470
-3470
-3470
-3450
-3470
-3460
-3460
-3480
-3480
-3500
-3510
-3520
-3550
-3540
-3590
-3600
-3630
-3660
-3670
-3700
-3720
-3750
-3780
-3800
-3840
-3860
-3890
-3940
-3950
-3980
-4010
-4040
-4060
-4080
-4110
-4120
-4140
-4150
-4150
-4180
-4170
-4190
-4190
-4180
-4190
-4170
-4170
-4180
-4160
-4170
-4150
-4150
-4130
-4100
-4090
-4060
-4040
-4020
-3990
-3970
-3930
-3910
-3870
-3830
-3810
-3770
-3750
-3720
-3690
-3660
-3640
-3620
-3580
-3570
-3550
-3510
-3510
-3490
-3470
-3470
-3450
-3450
-3440
-3450
-3460
-3460
-3470
-3470
-3470
-3490
-3490
-3510
-3520
-3560
-3560
-3590
-3610
-3630
-3650
-3690
-3710
-3740
-3770
-3810
-3820
-3860
-3910
-3920
-3960
-3980
-4010
-4050
-4050
-4090
-4090
-4110
-4140
-4140
-4170
-4170
-4190
-4190
-4180
-4190
-4170
-4170
-4180
-4160
-4160
-4140
-4120
-4120
-4090
-4080
-4050
-4030
-4020
-3990
-3990
-3940
-3930
-3890
-3850
-3830
-3790
-3760
-3730
-3700
-3670
-3640
-3630
-3590
-3580
-3560
-3530
-3510
-3490
-3470
-3470
-3440
-3460
-3420
-3420
-3430
-3410
-3430
-3440
-3450
-3450
-3440
-3480
-3480
-3510
-3540
-3560
-3600
-3610
-3640
-3660
-3670
-3710
-3720
-3770
-3780
-3810
-3860
-3870
-3930
-3950
-3980
-4000
-4000
-4040
-4060
-4070
-4110
-4110
-4140
-4160
-4160
-4170
-4160
-4180
-4180
-4180
-4180
-4170
-4170
-4160
-4140
-4140
-4110
-4100
-4070
-4060
-4030
-4010
-3980
-3950
-3940
-3910
-3870
-3850
-3820
-3790
-3760
-3730
-3710
-3650
-3650
-3610
-3570
-3560
-3530
-3520
-3500
-3480
-3480
-3450
-3460
-3440
-3430
-3440
-3430
-3430
-3440
-3440
-3450
-3450
-3480
-3470
-3490
-3510
-3520
-3550
-3570
-3590
-3620
-3640
-3680
-3700
-3730
-3760
-3780
-3820
-3850
-3860
-3900
-3920
-3970
-3980
-4010
-4040
-4060
-4080
-4090
-4120
-4110
-4140
-4150
-4150
-4170
-4170
-4180
-4170
-4170
-4160
-4150
-4140
-4130
-4110
-4100
-4080
-4050
-4040
-4010
-3980
-3960
-3930
-3910
-3870
-3850
-3820
-3780
-3750
-3720
-3700
-3650
-3640
-3610
-3590
-3570
-3550
-3530
-3510
-3480
-3480
-3470
-3450
-3460
-3430
-3460
-3440
-3450
-3450
-3450
-3470
-3450
-3480
-3480
-3480
-3500
-3510
-3530
-3560
-3570
-3600
-3610
-3650
-3660
-3700
-3720
-3750
-3790
-3810
-3840
-3880
-3890
-3920
-3960
-3980
-4000
-4020
-4050
-4070
-4070
-4110
-4090
-4140
-4130
-4150
-4170
-4170
-4170
-4160
-4150
-4160
-4130
-4130
-4110
-4100
-4110
-4060
-4050
-4020
-4010
-3980
-3960
-3950
-3900
-3890
-3860
-3820
-3810
-3760
-3750
-3710
-3670
-3660
-3630
-3600
-3580
-3550
-3540
-3510
-3490
-3480
-3460
-3450
-3430
-3430
-3430
-3420
-3430
-3410
-3430
-3430
-3430
-3430
-3450
-3480
-3470
-3490
-3510
-3510
-3550
-3570
-3590
-3640
-3660
-3700
-3740
-3760
-3790
-3810
-3860
-3880
-3900
-3950
-3940
-3990
-4000
-4020
-4050
-4060
-4080
-4090
-4100
-4120
-4110
-4130
-4130
-4130
-4150
-4120
-4130
-4120
-4140
-4130
-4110
-4100
-4080
-4080
-4050
-4020
-4010
-3960
-3970
-3930
-3890
-3870
-3830
-3820
-3770
-3760
-3720
-3690
-3680
-3630
-3610
-3580
-3540
-3540
-3520
-3500
-3490
-3460
-3460
-3430
-3430
-3430
-3420
-3430
-3400
-3420
-3410
-3410
-3420
-3430
-3440
-3470
-3480
-3500
-3510
-3540
-3550
-3570
-3600
-3620
-3660
-3690
-3710
-3750
-3770
-3810
-3840
-3870
-3900
-3910
-3960
-3970
-3980
-4020
-4020
-4050
-4060
-4070
-4100
-4110
-4130
-4130
-4150
-4150
-4140
-4150
-4130
-4130
-4130
-4110
-4090
-4070
-4070
-4040
-4020
-4010
-3970
-3960
-3930
-3910
-3890
-3850
-3840
-3790
-3770
-3730
-3700
-3670
-3640
-3610
-3600
-3550
-3560
-3530
-3510
-3500
-3470
-3450
-3440
-3420
-3420
-3400
-3420
-3400
-3410
-3400
-3400
-3410
-3410
-3430
-3450
-3450
-3470
-3480
-3510
-3520
-3560
-3590
-3610
-3660
-3670
-3700
-3740
-3750
-3790
-3810
-3840
-3880
-3890
-3930
-3950
-3970
-4010
-4010
-4050
-4050
-4070
-4090
-4090
-4120
-4120
-4130
-4140
-4140
-4130
-4130
-4120
-4110
-4110
-4110
-4090
-4080
-4080
-4050
-4050
-4000
-3980
-3970
-3930
-3920
-3880
-3860
-3830
-3800
-3760
-3730
-3700
-3670
-3640
-3620
-3580
-3560
-3540
-3510
-3500
-3470
-3470
-3450
-3430
-3430
-3410
-3420
-3410
-3390
-3400
-3390
-3410
-3410
-3420
-3440
-3440
-3450
-3460
-3480
-3500
-3510
-3540
-3570
-3580
-3630
-3640
-3680
-3700
-3720
-3760
-3780
-3830
-3840
-3880
-3900
-3920
-3960
-3970
-3990
-4020
-4030
-4060
-4060
-4080
-4090
-4100
-4110
-4100
-4120
-4110
-4110
-4110
-4090
-4100
-4090
-4060
-4060
-4040
-4040
-4010
-3990
-3980
-3930
-3930
-3880
-3870
-3840
-3800
-3790
-3750
-3720
-3710
-3670
-3640
-3610
-3580
-3560
-3520
-3510
-3470
-3470
-3450
-3420
-3420
-3400
-3400
-3380
-3380
-3390
-3370
-3380
-3400
-3400
-3430
-3420
-3440
-3450
-3460
-3480
-3500
-3530
-3550
-3570
-3610
-3620
-3660
-3680
-3700
-3750
-3760
-3800
-3820
-3850
-3880
-3900
-3930
-3970
-3990
-4010
-4020
-4040
-4060
-4080
-4100
-4110
-4110
-4110
-4110
-4120
-4110
-4120
-4100
-4100
-4090
-4070
-4060
-4050
-4040
-4020
-4020
-4010
-3990
-3960
-3950
-3910
-3890
-3840
-3830
-3790
-3760
-3740
-3690
-3680
-3640
-3610
-3590
-3550
-3530
-3510
-3500
-3480
-3450
-3460
-3430
-3430
-3420
-3400
-3410
-3400
-3400
-3410
-3400
-3420
-3420
-3430
-3450
-3460
-3480
-3480
-3520
-3520
-3550
-3580
-3580
-3620
-3640
-3680
-3710
-3720
-3770
-3800
-3820
-3860
-3880
-3900
-3930
-3960
-3970
-3990
-4020
-4020
-4040
-4060
-4060
-4090
-4090
-4090
-4110
-4090
-4110
-4100
-4090
-4090
-4060
-4090
-4060
-4060
-4050
-4030
-4020
-3990
-3970
-3950
-3900
-3890
-3850
-3820
-3790
-3740
-3730
-3690
-3660
-3630
-3610
-3570
-3550
-3540
-3510
-3490
-3480
-3450
-3440
-3420
-3420
-3410
-3380
-3400
-3380
-3380
-3380
-3380
-3390
-3400
-3410
-3430
-3430
-3460
-3480
-3500
-3510
-3510
-3550
-3560
-3580
-3620
-3630
-3660
-3680
-3710
-3750
-3770
-3820
-3830
-3860
-3880
-3910
-3930
-3960
-3980
-4000
-4020
-4040
-4050
-4070
-4080
-4080
-4100
-4080
-4100
-4100
-4090
-4100
-4070
-4080
-4070
-4050
-4040
-4030
-4010
-4000
-3970
-3960
-3920
-3910
-3870
-3840
-3820
-3770
-3760
-3730
-3690
-3660
-3630
-3600
-3560
-3540
-3530
-3500
-3500
-3460
-3460
-3440
-3410
-3410
-3390
-3380
-3390
-3370
-3380
-3370
-3370
-3370
-3370
-3400
-3400
-3420
-3430
-3440
-3470
-3470
-3510
-3510
-3550
-3570
-3580
-3620
-3640
-3670
-3690
-3720
-3760
-3780
-3820
-3850
-3870
-3900
-3920
-3950
-3960
-3980
-4010
-4030
-4040
-4070
-4080
-4080
-4080
-4070
-4090
-4070
-4080
-4080
-4060
-4060
-4040
-4050
-4030
-4020
-4000
-3970
-3960
-3930
-3910
-3890
-3850
-3840
-3790
-3780
-3750
-3710
-3690
-3640
-3610
-3590
-3550
-3530
-3500
-3480
-3460
-3440
-3430
-3410
-3400
-3380
-3370
-3370
-3350
-3360
-3360
-3350
-3360
-3360
-3370
-3380
-3390
-3420
-3410
-3430
-3450
-3470
-3510
-3520
-3560
-3580
-3610
-3650
-3660
-3700
-3720
-3750
-3770
-3810
-3830
-3840
-3890
-3910
-3920
-3950
-3960
-3980
-4010
-4020
-4050
-4050
-4090
-4090
-4080
-4100
-4080
-4080
-4090
-4060
-4080
-4050
-4060
-4030
-4020
-4000
-3980
-3970
-3940
-3930
-3890
-3860
-3850
-3810
-3790
-3770
-3750
-3720
-3680
-3640
-3630
-3580
-3580
-3530
-3520
-3510
-3480
-3470
-3450
-3440
-3420
-3400
-3390
-3380
-3380
-3380
-3360
-3380
-3360
-3380
-3380
-3390
-3410
-3410
-3430
-3440
-3450
-3470
-3480
-3510
-3530
-3560
-3600
-3600
-3650
-3660
-3690
-3720
-3730
-3780
-3800
-3830
-3870
-3900
-3940
-3960
-3970
-4000
-3990
-4020
-4020
-4030
-4040
-4040
-4060
-4060
-4060
-4070
-4060
-4060
-4050
-4040
-4050
-4030
-4030
-3990
-3980
-3960
-3930
-3920
-3880
-3860
-3840
-3800
-3790
-3740
-3720
-3700
-3650
-3640
-3600
-3580
-3550
-3530
-3520
-3490
-3470
-3460
-3430
-3430
-3410
-3400
-3390
-3380
-3380
-3360
-3370
-3360
-3370
-3370
-3380
-3400
-3390
-3410
-3430
-3450
-3470
-3480
-3500
-3530
-3540
-3570
-3590
-3620
-3650
-3660
-3700
-3720
-3760
-3800
-3810
-3850
-3860
-3900
-3910
-3930
-3960
-3960
-4000
-4000
-4020
-4030
-4040
-4060
-4050
-4050
-4060
-4050
-4060
-4040
-4040
-4040
-4000
-4010
-3980
-3970
-3970
-3930
-3930
-3900
-3860
-3850
-3810
-3810
-3770
-3740
-3730
-3680
-3670
-3630
-3600
-3580
-3540
-3530
-3500
-3470
-3450
-3440
-3430
-3400
-3380
-3380
-3360
-3360
-3350
-3360
-3360
-3360
-3370
-3370
-3380
-3390
-3390
-3410
-3410
-3430
-3450
-3450
-3480
-3500
-3520
-3560
-3570
-3600
-3620
-3660
-3680
-3710
-3730
-3750
-3800
-3810
-3840
-3860
-3890
-3920
-3930
-3950
-3970
-3990
-4010
-4010
-4030
-4050
-4040
-4070
-4060
-4080
-4070
-4060
-4060
-4040
-4040
-4010
-3990
-3980
-3950
-3940
-3910
-3890
-3870
-3840
-3820
-3800
-3760
-3750
-3700
-3700
-3650
-3610
-3600
-3560
-3540
-3510
-3490
-3480
-3440
-3450
-3420
-3400
-3410
-3370
-3380
-3360
-3360
-3360
-3350
-3350
-3360
-3370
-3380
-3370
-3400
-3400
-3420
-3440
-3440
-3480
-3490
-3510
-3540
-3540
-3580
-3600
-3620
-3650
-3670
-3720
-3720
-3770
-3790
-3820
-3840
-3860
-3890
-3910
-3940
-3980
-4000
-4020
-4030
-4030
-4050
-4040
-4050
-4050
-4040
-4040
-4030
-4030
-4030
-4020
-4010
-3990
-3980
-3950
-3930
-3930
-3890
-3890
-3850
-3820
-3810
-3770
-3760
-3710
-3690
-3670
-3620
-3620
-3570
-3550
-3530
-3500
-3500
-3450
-3440
-3430
-3400
-3400
-3370
-3360
-3350
-3350
-3360
-3350
-3360
-3350
-3370
-3360
-3360
-3380
-3390
-3400
-3430
-3430
-3460
-3470
-3500
-3520
-3540
-3570
-3590
-3610
-3650
-3660
-3700
-3720
-3750
-3790
-3800
-3830
-3860
-3870
-3900
-3930
-3940
-3960
-3970
-3990
-3990
-4020
-4010
-4030
-4020
-4030
-4030
-4030
-4020
-4020
-4010
-4010
-3980
-3990
-3960
-3950
-3930
-3900
-3890
-3870
-3840
-3820
-3780
-3780
-3750
-3710
-3690
-3650
-3620
-3590
-3570
-3540
-3510
-3490
-3470
-3440
-3430
-3410
-3400
-3390
-3370
-3370
-3350
-3350
-3340
-3350
-3340
-3350
-3350
-3350
-3360
-3380
-3390
-3390
-3400
-3420
-3430
-3450
-3490
-3500
-3540
-3560
-3590
-3610
-3620
-3670
-3690
-3720
-3750
-3770
-3820
-3830
-3860
-3880
-3900
-3910
-3940
-3950
-3970
-3980
-4000
-4000
-4020
-4030
-4010
-4030
-4020
-4020
-4030
-4000
-4020
-3990
-3980
-3980
-3940
-3940
-3920
-3900
-3890
-3850
-3850
-3820
-3790
-3770
-3730
-3720
-3670
-3650
-3630
-3590
-3560
-3530
-3510
-3490
-3470
-3460
-3430
-3430
-3410
-3390
-3370
-3360
-3350
-3330
-3330
-3330
-3330
-3330
-3330
-3330
-3360
-3350
-3380
-3380
-3390
-3430
-3430
-3460
-3500
-3500
-3540
-3540
-3580
-3580
-3620
-3650
-3670
-3710
-3720
-3750
-3780
-3810
-3840
-3860
-3880
-3910
-3910
-3940
-3950
-3970
-3990
-4000
-4010
-4020
-4030
-4030
-4030
-4040
-4020
-4030
-4020
-4000
-3990
-3970
-3960
-3940
-3910
-3900
-3860
-3860
-3820
-3790
-3780
-3740
-3730
-3690
-3670
-3660
-3610
-3600
-3560
-3530
-3510
-3480
-3460
-3440
-3420
-3410
-3380
-3380
-3350
-3340
-3340
-3320
-3340
-3320
-3340
-3340
-3340
-3350
-3340
-3360
-3360
-3380
-3400
-3410
-3440
-3460
-3490
-3500
-3510
-3550
-3550
-3590
-3630
-3640
-3680
-3690
-3720
-3760
-3780
-3820
-3850
-3860
-3880
-3890
-3930
-3930
-3940
-3980
-3960
-4000
-4000
-4010
-4020
-4010
-4020
-4010
-4000
-4010
-3990
-3980
-3960
-3950
-3940
-3910
-3900
-3870
-3850
-3830
-3800
-3790
-3750
-3730
-3700
-3690
-3660
-3630
-3610
-3580
-3550
-3530
-3510
-3490
-3480
-3430
-3420
-3400
-3390
-3360
-3360
-3350
-3320
-3340
-3330
-3320
-3330
-3310
-3330
-3320
-3350
-3360
-3370
-3390
-3400
-3430
-3440
-3450
-3470
-3480
-3520
-3540
-3560
-3590
-3600
-3640
-3660
-3680
-3730
-3750
-3780
-3810
-3810
-3840
-3860
-3880
-3900
-3920
-3930
-3930
-3960
-3960
-3970
-4000
-4000
-4010
-4020
-4010
-4000
-3990
-3980
-3970
-3940
-3950
-3920
-3900
-3890
-3870
-3840
-3810
-3800
-3760
-3730
-3720
-3680
-3670
-3640
-3620
-3610
-3570
-3560
-3520
-3500
-3480
-3450
-3430
-3410
-3390
-3380
-3360
-3350
-3330
-3330
-3330
-3330
-3330
-3320
-3330
-3340
-3340
-3350
-3340
-3360
-3380
-3400
-3410
-3420
-3460
-3470
-3490
-3520
-3540
-3560
-3590
-3610
-3660
-3670
-3700
-3730
-3740
-3790
-3800
-3830
-3840
-3860
-3890
-3890
-3920
-3920
-3950
-3960
-3960
-3980
-3970
-3980
-3980
-3980
-3980
-3970
-3960
-3950
-3940
-3950
-3910
-3910
-3900
-3870
-3860
-3830
-3810
-3780
-3760
-3760
-3700
-3690
-3670
-3630
-3610
-3580
-3560
-3530
-3500
-3480
-3450
-3440
-3400
-3390
-3370
-3360
-3350
-3330
-3320
-3320
-3310
-3330
-3310
-3330
-3330
-3340
-3340
-3350
-3360
-3380
-3370
-3390
-3400
-3410
-3440
-3450
-3480
-3490
-3530
-3550
-3570
-3600
-3610
-3660
-3670
-3690
-3730
-3750
-3790
-3820
-3840
-3880
-3880
-3920
-3930
-3940
-3960
-3960
-3980
-3980
-3980
-3990
-3970
-3990
-3980
-3970
-3970
-3940
-3940
-3930
-3920
-3920
-3890
-3890
-3860
-3840
-3820
-3790
-3770
-3740
-3710
-3680
-3650
-3620
-3580
-3560
-3530
-3510
-3500
-3470
-3460
-3440
-3410
-3400
-3390
-3370
-3350
-3320
-3320
-3300
-3300
-3290
-3290
-3300
-3290
-3320
-3320
-3350
-3360
-3360
-3380
-3400
-3400
-3430
-3440
-3470
-3470
-3500
-3530
-3540
-3580
-3600
-3630
-3660
-3660
-3710
-3720
-3750
-3790
-3800
-3840
-3850
-3880
-3900
-3900
-3930
-3940
-3950
-3970
-3960
-3980
-3970
-3970
-3970
-3960
-3960
-3950
-3950
-3950
-3920
-3920
-3890
-3880
-3870
-3850
-3840
-3800
-3790
-3760
-3720
-3710
-3670
-3660
-3620
-3600
-3580
-3530
-3520
-3500
-3460
-3450
-3420
-3420
-3380
-3370
-3370
-3340
-3340
-3320
-3320
-3310
-3290
-3310
-3300
-3310
-3320
-3310
-3340
-3320
-3350
-3350
-3370
-3390
-3400
-3430
-3450
-3470
-3500
-3520
-3540
-3580
-3600
-3630
-3650
-3690
-3710
-3740
-3770
-3770
-3820
-3830
-3850
-3880
-3870
-3910
-3910
-3930
-3960
-3950
-3960
-3960
-3960
-3960
-3960
-3970
-3940
-3940
-3940
-3930
-3910
-3900
-3890
-3870
-3840
-3840
-3810
-3800
-3770
-3750
-3740
-3710
-3680
-3660
-3630
-3600
-3560
-3550
-3520
-3500
-3480
-3440
-3430
-3400
-3380
-3370
-3350
-3350
-3320
-3320
-3330
-3300
-3310
-3310
-3300
-3310
-3300
-3330
-3330
-3330
-3360
-3360
-3380
-3390
-3410
-3440
-3450
-3490
-3490
-3530
-3550
-3570
-3600
-3630
-3650
-3680
-3700
-3730
-3760
-3780
-3820
-3830
-3870
-3870
-3900
-3900
-3910
-3940
-3930
-3960
-3950
-3950
-3970
-3970
-3980
-3980
-3970
-3980
-3970
-3960
-3940
-3920
-3920
-3890
-3880
-3850
-3830
-3820
-3770
-3760
-3730
-3720
-3690
-3650
-3630
-3590
-3570
-3540
-3500
-3490
-3460
-3440
-3420
-3400
-3400
-3370
-3360
-3350
-3330
-3330
-3310
-3300
-3310
-3300
-3300
-3300
-3300
-3310
-3310
-3330
-3330
-3350
-3370
-3380
-3410
-3420
-3450
-3470
-3490
-3530
-3540
-3560
-3590
-3620
-3660
-3680
-3710
-3750
-3770
-3810
-3830
-3850
-3870
-3900
-3910
-3920
-3940
-3960
-3960
-3980
-3980
-3990
-3980
-3980
-3990
-3980
-3990
-3970
-3990
-3970
-3950
-3950
-3910
-3910
-3880
-3870
-3840
-3810
-3790
-3770
-3730
-3720
-3680
-3660
-3630
-3610
-3570
-3540
-3510
-3490
-3460
-3450
-3420
-3420
-3410
-3390
-3380
-3350
-3350
-3330
-3310
-3320
-3300
-3320
-3310
-3300
-3330
-3310
-3350
-3340
-3350
-3360
-3370
-3400
-3410
-3430
-3460
-3480
-3510
-3520
-3550
-3570
-3590
-3630
-3650
-3680
-3720
-3730
-3770
-3790
-3820
-3840
-3850
-3890
-3900
-3930
-3940
-3950
-3950
-3960
-3970
-3970
-3970
-3970
-3970
-3970
-3960
-3960
-3950
-3930
-3930
-3910
-3910
-3900
-3880
-3860
-3830
-3820
-3800
-3750
-3740
-3710
-3680
-3650
-3620
-3590
-3550
-3530
-3510
-3470
-3470
-3440
-3430
-3400
-3370
-3380
-3340
-3340
-3330
-3310
-3330
-3310
-3310
-3310
-3310
-3320
-3310
-3330
-3330
-3340
-3360
-3370
-3400
-3410
-3420
-3450
-3440
-3480
-3490
-3520
-3550
-3560
-3590
-3610
-3650
-3690
-3710
-3760
-3790
-3810
-3840
-3840
-3870
-3880
-3890
-3920
-3920
-3940
-3950
-3960
-3970
-3970
-3980
-3980
-3960
-3980
-3960
-3980
-3940
-3950
-3940
-3930
-3920
-3880
-3880
-3850
-3820
-3810
-3780
-3760
-3730
-3710
-3690
-3660
-3640
-3600
-3570
-3560
-3520
-3510
-3470
-3450
-3450
-3410
-3400
-3380
-3350
-3350
-3320
-3320
-3320
-3310
-3310
-3310
-3320
-3320
-3320
-3330
-3320
-3350
-3340
-3370
-3380
-3390
-3420
-3430
-3450
-3480
-3490
-3540
-3550
-3570
-3610
-3630
-3670
-3680
-3710
-3730
-3770
-3800
-3810
-3840
-3870
-3880
-3910
-3910
-3930
-3930
-3950
-3960
-3960
-3980
-3970
-3990
-3990
-3980
-3980
-3960
-3960
-3950
-3920
-3930
-3900
-3880
-3870
-3840
-3840
-3800
-3790
-3770
-3720
-3720
-3680
-3660
-3630
-3600
-3580
-3540
-3520
-3500
-3460
-3450
-3410
-3410
-3390
-3360
-3360
-3320
-3330
-3310
-3300
-3300
-3280
-3300
-3290
-3290
-3310
-3290
-3310
-3310
-3320
-3350
-3360
-3390
-3420
-3430
-3460
-3470
-3500
-3530
-3550
-3580
-3610
-3650
-3670
-3700
-3730
-3740
-3790
-3800
-3820
-3830
-3860
-3880
-3890
-3920
-3930
-3930
-3960
-3950
-3970
-3980
-3980
-4000
-3990
-3980
-3980
-3960
-3960
-3940
-3930
-3920
-3890
-3880
-3850
-3850
-3820
-3800
-3790
-3750
-3730
-3710
-3670
-3660
-3610
-3590
-3560
-3530
-3520
-3470
-3470
-3430
-3420
-3410
-3390
-3390
-3350
-3340
-3340
-3310
-3320
-3300
-3300
-3290
-3290
-3300
-3290
-3310
-3330
-3340
-3370
-3370
-3400
-3420
-3420
-3450
-3460
-3490
-3510
-3530
-3560
-3580
-3620
-3640
-3660
-3700
-3720
-3750
-3760
-3800
-3820
-3830
-3870
-3880
-3890
-3920
-3930
-3960
-3960
-3970
-3980
-3970
-3990
-3980
-3980
-3980
-3960
-3970
-3940
-3930
-3920
-3900
-3910
-3880
-3870
-3860
-3840
-3820
-3790
-3760
-3740
-3700
-3690
-3660
-3620
-3600
-3560
-3540
-3500
-3480
-3450
-3440
-3430
-3400
-3380
-3370
-3340
-3340
-3310
-3320
-3300
-3290
-3300
-3280
-3300
-3290
-3310
-3320
-3320
-3340
-3340
-3350
-3380
-3370
-3400
-3420
-3450
-3470
-3500
-3530
-3550
-3570
-3610
-3630
-3670
-3690
-3720
-3760
-3770
-3800
-3830
-3850
-3870
-3880
-3910
-3910
-3930
-3950
-3950
-3980
-3970
-3980
-3990
-3980
-3990
-3980
-3990
-3980
-3960
-3970
-3930
-3950
-3910
-3890
-3870
-3840
-3830
-3810
-3770
-3760
-3720
-3710
-3680
-3650
-3630
-3590
-3570
-3540
-3510
-3500
-3470
-3450
-3430
-3410
-3390
-3370
-3360
-3330
-3330
-3330
-3310
-3310
-3300
-3300
-3300
-3300
-3320
-3310
-3330
-3330
-3330
-3360
-3370
-3380
-3420
-3430
-3460
-3460
-3510
-3520
-3550
-3590
-3590
-3640
-3660
-3700
-3720
-3750
-3780
-3800
-3820
-3860
-3860
-3900
-3910
-3920
-3940
-3960
-3970
-3980
-3990
-4000
-3980
-3990
-3970
-3960
-3980
-3940
-3960
-3940
-3950
-3930
-3900
-3890
-3860
-3840
-3830
-3800
-3790
-3770
-3760
-3730
-3690
-3650
-3630
-3590
-3560
-3540
-3510
-3480
-3470
-3450
-3420
-3410
-3390
-3370
-3350
-3330
-3330
-3310
-3310
-3310
-3290
-3310
-3290
-3320
-3310
-3320
-3320
-3330
-3350
-3350
-3370
-3400
-3410
-3440
-3460
-3480
-3520
-3530
-3570
-3580
-3610
-3650
-3660
-3710
-3720
-3750
-3800
-3810
-3850
-3860
-3880
-3900
-3910
-3940
-3940
-3960
-3970
-3970
-3990
-3980
-4000
-4000
-3990
-3990
-3970
-3970
-3970
-3950
-3940
-3920
-3910
-3890
-3860
-3850
-3830
-3800
-3790
-3750
-3740
-3700
-3690
-3640
-3620
-3590
-3550
-3530
-3480
-3470
-3450
-3410
-3410
-3380
-3370
-3370
-3330
-3330
-3320
-3300
-3320
-3310
-3330
-3320
-3330
-3360
-3330
-3360
-3350
-3360
-3380
-3370
-3400
-3400
-3430
-3450
-3460
-3500
-3500
-3540
-3570
-3580
-3620
-3640
-3680
-3710
-3730
-3770
-3780
-3820
-3840
-3850
-3890
-3900
-3920
-3930
-3940
-3950
-3960
-3990
-3990
-3990
-4010
-4000
-4000
-3990
-3990
-3990
-3970
-3970
-3950
-3930
-3920
-3890
-3880
-3850
-3830
-3820
-3780
-3760
-3730
-3710
-3680
-3640
-3630
-3580
-3560
-3530
-3490
-3490
-3440
-3440
-3410
-3390
-3380
-3360
-3360
-3340
-3330
-3330
-3310
-3320
-3310
-3310
-3320
-3300
-3330
-3320
-3320
-3340
-3330
-3370
-3380
-3380
-3410
-3420
-3460
-3470
-3500
-3530
-3540
-3580
-3600
-3640
-3680
-3710
-3760
-3770
-3800
-3830
-3840
-3870
-3880
-3910
-3920
-3950
-3960
-3970
-3980
-3990
-3990
-4010
-4010
-4010
-4010
-3990
-4000
-3980
-3980
-3990
-3960
-3960
-3930
-3920
-3900
-3870
-3860
-3830
-3800
-3780
-3760
-3730
-3700
-3680
-3650
-3620
-3590
-3560
-3540
-3490
-3480
-3470
-3430
-3430
-3410
-3380
-3380
-3360
-3350
-3340
-3330
-3320
-3320
-3330
-3320
-3330
-3330
-3330
-3350
-3360
-3380
-3400
-3400
-3430
-3440
-3460
-3490
-3510
-3550
-3560
-3590
-3620
-3640
-3660
-3690
-3730
-3760
-3780
-3820
-3830
-3870
-3890
-3900
-3940
-3930
-3960
-3970
-3990
-4000
-4010
-4020
-4030
-4030
-4040
-4020
-4010
-4020
-3990
-3990
-3970
-3980
-3950
-3940
-3920
-3910
-3900
-3860
-3850
-3820
-3790
-3780
-3730
-3700
-3670
-3640
-3630
-3590
-3570
-3540
-3510
-3500
-3460
-3450
-3440
-3410
-3410
-3370
-3370
-3360
-3340
-3350
-3330
-3330
-3330
-3330
-3340
-3330
-3350
-3350
-3360
-3370
-3380
-3400
-3420
-3430
-3460
-3470
-3510
-3520
-3560
-3570
-3600
-3640
-3660
-3700
-3720
-3760
-3790
-3810
-3830
-3860
-3880
-3910
-3910
-3940
-3960
-3970
-3990
-4000
-4000
-4020
-4010
-4030
-4020
-4020
-4020
-4000
-4020
-4000
-3980
-3980
-3960
-3950
-3920
-3900
-3890
-3860
-3850
-3810
-3800
-3770
-3730
-3710
-3660
-3640
-3610
-3580
-3560
-3530
-3520
-3490
-3460
-3460
-3410
-3420
-3380
-3360
-3350
-3330
-3340
-3310
-3310
-3320
-3310
-3320
-3320
-3330
-3330
-3330
-3360
-3350
-3380
-3390
-3410
-3440
-3450
-3490
-3500
-3520
-3550
-3560
-3600
-3620
-3650
-3700
-3710
-3750
-3770
-3790
-3830
-3860
-3900
-3920
-3940
-3960
-3960
-4000
-3980
-4000
-4020
-4020
-4020
-4030
-4030
-4040
-4010
-4030
-4000
-4000
-3990
-3980
-3970
-3950
-3930
-3920
-3880
-3870
-3840
-3820
-3790
-3770
-3730
-3700
-3670
-3650
-3610
-3590
-3550
-3530
-3520
-3480
-3460
-3430
-3420
-3400
-3380
-3380
-3350
-3350
-3330
-3330
-3320
-3310
-3320
-3310
-3330
-3340
-3340
-3360
-3360
-3370
-3390
-3390
-3410
-3430
-3460
-3490
-3500
-3530
-3550
-3580
-3610
-3630
-3690
-3690
-3730
-3760
-3790
-3830
-3840
-3870
-3890
-3910
-3940
-3940
-3970
-3980
-3990
-4010
-4010
-4020
-4030
-4030
-4040
-4040
-4030
-4030
-4010
-4010
-3990
-3980
-3970
-3950
-3940
-3910
-3900
-3870
-3850
-3830
-3800
-3780
-3760
-3710
-3690
-3650
-3630
-3600
-3570
-3550
-3510
-3500
-3470
-3460
-3430
-3400
-3400
-3380
-3360
-3360
-3340
-3350
-3330
-3330
-3340
-3330
-3360
-3340
-3360
-3360
-3370
-3380
-3400
-3410
-3440
-3430
-3480
-3490
-3510
-3550
-3560
-3610
-3620
-3660
-3690
-3710
-3740
-3770
-3810
-3830
-3850
-3880
-3890
-3930
-3950
-3950
-3990
-3990
-4020
-4010
-4030
-4040
-4040
-4040
-4040
-4040
-4040
-4030
-4040
-4010
-4010
-4000
-3970
-3970
-3940
-3920
-3910
-3880
-3860
-3830
-3820
-3790
-3760
-3730
-3690
-3670
-3640
-3610
-3590
-3550
-3530
-3510
-3480
-3460
-3440
-3430
-3420
-3400
-3400
-3360
-3380
-3350
-3340
-3350
-3330
-3350
-3350
-3360
-3360
-3380
-3390
-3390
-3410
-3430
-3440
-3480
-3490
-3520
-3540
-3560
-3590
-3610
-3650
-3670
-3700
-3750
-3770
-3800
-3820
-3840
-3870
-3880
-3920
-3930
-3950
-3980
-3970
-4000
-4010
-4030
-4050
-4050
-4070
-4080
-4080
-4090
-4080
-4080
-4060
-4040
-4040
-4010
-4010
-4000
-3970
-3950
-3930
-3910
-3890
-3850
-3830
-3800
-3780
-3750
-3710
-3690
-3660
-3630
-3600
-3580
-3550
-3520
-3510
-3480
-3460
-3450
-3420
-3420
-3390
-3390
-3380
-3360
-3370
-3350
-3360
-3360
-3350
-3370
-3380
-3400
-3400
-3410
-3430
-3440
-3460
-3480
-3500
-3540
-3540
-3580
-3600
-3620
-3660
-3680
-3720
-3730
-3770
-3810
-3820
-3860
-3880
-3910
-3940
-3950
-3980
-3990
-4000
-4020
-4030
-4060
-4060
-4080
-4090
-4080
-4090
-4080
-4080
-4080
-4060
-4060
-4030
-4040
-4020
-4010
-4000
-3970
-3950
-3940
-3910
-3880
-3850
-3830
-3800
-3760
-3750
-3700
-3690
-3650
-3610
-3590
-3550
-3540
-3510
-3490
-3470
-3450
-3450
-3420
-3430
-3410
-3410
-3400
-3390
-3390
-3390
-3390
-3400
-3400
-3400
-3420
-3420
-3450
-3430
-3460
-3480
-3490
-3530
-3530
-3580
-3600
-3620
-3650
-3670
-3710
-3740
-3770
-3800
-3830
-3860
-3890
-3910
-3940
-3960
-3980
-4000
-4020
-4050
-4040
-4080
-4090
-4090
-4110
-4100
-4110
-4100
-4100
-4110
-4090
-4110
-4090
-4080
-4080
-4040
-4030
-4010
-3980
-3980
-3940
-3930
-3890
-3870
-3840
-3810
-3780
-3750
-3720
-3690
-3650
-3640
-3600
-3590
-3580
-3550
-3550
-3520
-3500
-3480
-3460
-3450
-3430
-3430
-3400
-3410
-3400
-3380
-3410
-3390
-3410
-3420
-3420
-3440
-3440
-3460
-3480
-3490
-3530
-3530
-3560
-3580
-3600
-3640
-3660
-3690
-3720
-3740
-3780
-3800
-3830
-3880
-3900
-3940
-3960
-3990
-4010
-4020
-4060
-4070
-4100
-4100
-4120
-4140
-4140
-4160
-4160
-4160
-4160
-4140
-4150
-4140
-4120
-4110
-4090
-4080
-4060
-4050
-4030
-3990
-3990
-3950
-3920
-3910
-3870
-3840
-3820
-3780
-3770
-3730
-3710
-3670
-3650
-3610
-3580
-3580
-3540
-3530
-3510
-3490
-3490
-3460
-3460
-3460
-3430
-3440
-3420
-3430
-3430
-3440
-3440
-3450
-3460
-3480
-3490
-3510
-3510
-3540
-3560
-3580
-3610
-3630
-3660
-3680
-3710
-3740
-3760
-3800
-3830
-3850
-3900
-3910
-3940
-3970
-3990
-4020
-4030
-4060
-4080
-4090
-4120
-4130
-4140
-4160
-4150
-4170
-4160
-4180
-4160
-4150
-4150
-4130
-4150
-4130
-4120
-4110
-4090
-4070
-4050
-4020
-4010
-3970
-3950
-3920
-3900
-3880
-3840
-3830
-3770
-3760
-3720
-3700
-3680
-3640
-3620
-3590
-3570
-3570
-3530
-3530
-3510
-3480
-3490
-3470
-3480
-3460
-3450
-3460
-3450
-3470
-3470
-3480
-3500
-3500
-3540
-3540
-3550
-3580
-3580
-3620
-3640
-3660
-3690
-3710
-3750
-3760
-3800
-3830
-3850
-3900
-3920
-3960
-3980
-4000
-4040
-4050
-4080
-4110
-4110
-4130
-4150
-4160
-4180
-4180
-4190
-4180
-4190
-4200
-4190
-4190
-4180
-4180
-4170
-4160
-4150
-4130
-4130
-4090
-4080
-4070
-4020
-4010
-3980
-3960
-3940
-3900
-3880
-3830
-3820
-3790
-3740
-3730
-3690
-3660
-3650
-3610
-3610
-3560
-3560
-3540
-3520
-3520
-3510
-3520
-3510
-3500
-3510
-3490
-3500
-3500
-3490
-3520
-3520
-3540
-3540
-3570
-3590
-3600
-3640
-3640
-3670
-3710
-3720
-3770
-3790
-3810
-3840
-3870
-3900
-3940
-3960
-3990
-4010
-4040
-4060
-4090
-4120
-4130
-4160
-4160
-4190
-4200
-4220
-4240
-4230
-4250
-4240
-4240
-4240
-4220
-4230
-4210
-4210
-4200
-4180
-4170
-4150
-4130
-4120
-4090
-4060
-4050
-4020
-3990
-3960
-3940
-3910
-3870
-3850
-3810
-3780
-3760
-3730
-3710
-3680
-3660
-3640
-3610
-3600
-3590
-3580
-3560
-3540
-3540
-3530
-3520
-3520
-3530
-3520
-3530
-3540
-3560
-3560
-3590
-3590
-3630
-3630
-3650
-3670
-3680
-3720
-3740
-3770
-3800
-3820
-3860
-3880
-3910
-3950
-3970
-4010
-4030
-4060
-4080
-4100
-4150
-4140
-4170
-4190
-4200
-4230
-4240
-4260
-4270
-4270
-4290
-4280
-4270
-4270
-4260
-4260
-4240
-4250
-4230
-4210
-4210
-4170
-4190
-4150
-4130
-4110
-4070
-4060
-4010
-4000
-3970
-3930
-3920
-3880
-3850
-3830
-3800
-3780
-3750
-3730
-3700
-3680
-3670
-3630
-3630
-3620
-3590
-3590
-3570
-3570
-3570
-3560
-3580
-3570
-3580
-3590
-3590
-3610
-3620
-3630
-3660
-3660
-3690
-3720
-3730
-3770
-3780
-3820
-3840
-3860
-3890
-3920
-3950
-3980
-4010
-4050
-4070
-4100
-4120
-4150
-4170
-4190
-4210
-4230
-4260
-4260
-4270
-4300
-4300
-4310
-4310
-4310
-4320
-4300
-4310
-4300
-4290
-4300
-4270
-4270
-4240
-4230
-4220
-4180
-4180
-4150
-4120
-4100
-4060
-4030
-4010
-3980
-3950
-3920
-3890
-3860
-3830
-3810
-3780
-3760
-3740
-3730
-3680
-3680
-3670
-3640
-3650
-3630
-3610
-3620
-3600
-3620
-3610
-3610
-3630
-3620
-3630
-3660
-3660
-3680
-3690
-3710
-3710
-3740
-3760
-3780
-3820
-3830
-3860
-3880
-3920
-3960
-3980
-4030
-4070
-4100
-4140
-4150
-4180
-4200
-4220
-4250
-4260
-4290
-4300
-4310
-4330
-4320
-4340
-4360
-4350
-4360
-4360
-4370
-4350
-4350
-4350
-4320
-4320
-4310
-4290
-4290
-4250
-4230
-4210
-4180
-4160
-4130
-4110
-4080
-4040
-4030
-3980
-3960
-3920
-3880
-3870
-3820
-3820
-3780
-3760
-3750
-3730
-3720
-3700
-3700
-3680
-3670
-3670
-3660
-3660
-3650
-3640
-3660
-3650
-3670
-3670
-3680
-3700
-3700
-3730
-3730
-3750
-3790
-3800
-3830
-3860
-3880
-3920
-3940
-3980
-4010
-4050
-4080
-4110
-4150
-4160
-4210
-4220
-4240
-4270
-4290
-4300
-4330
-4330
-4360
-4380
-4380
-4390
-4390
-4400
-4390
-4390
-4410
-4390
-4400
-4380
-4390
-4360
-4350
-4340
-4310
-4300
-4290
-4260
-4240
-4200
-4190
-4170
-4130
-4120
-4080
-4050
-4020
-3980
-3970
-3940
-3900
-3880
-3850
-3830
-3800
-3780
-3780
-3760
-3740
-3730
-3700
-3700
-3690
-3700
-3690
-3690
-3700
-3700
-3720
-3710
-3730
-3740
-3750
-3770
-3760
-3800
-3810
-3840
-3880
-3910
-3960
-3980
-4020
-4040
-4060
-4100
-4100
-4140
-4170
-4190
-4230
-4260
-4290
-4310
-4340
-4360
-4380
-4400
-4400
-4420
-4430
-4430
-4440
-4450
-4460
-4460
-4450
-4450
-4430
-4420
-4420
-4390
-4390
-4370
-4340
-4330
-4300
-4280
-4250
-4230
-4220
-4180
-4160
-4130
-4110
-4070
-4030
-4010
-3980
-3960
-3920
-3900
-3890
-3850
-3840
-3820
-3800
-3790
-3770
-3770
-3760
-3740
-3750
-3730
-3740
-3750
-3750
-3770
-3760
-3780
-3800
-3790
-3810
-3820
-3840
-3860
-3870
-3900
-3910
-3950
-3980
-4000
-4040
-4070
-4110
-4130
-4170
-4210
-4230
-4270
-4290
-4310
-4350
-4340
-4390
-4390
-4410
-4440
-4440
-4480
-4470
-4490
-4500
-4490
-4520
-4490
-4500
-4500
-4480
-4490
-4460
-4450
-4440
-4420
-4410
-4390
-4360
-4350
-4320
-4290
-4270
-4240
-4210
-4180
-4160
-4120
-4100
-4060
-4020
-4020
-3960
-3950
-3920
-3910
-3890
-3860
-3860
-3830
-3810
-3800
-3780
-3780
-3780
-3780
-3790
-3780
-3790
-3800
-3790
-3810
-3810
-3840
-3830
-3860
-3900
-3910
-3960
-3970
-3990
-4020
-4040
-4070
-4090
-4110
-4160
-4170
-4220
-4240
-4270
-4300
-4320
-4370
-4380
-4410
-4440
-4440
-4470
-4480
-4510
-4510
-4520
-4540
-4530
-4540
-4540
-4540
-4540
-4530
-4530
-4510
-4500
-4490
-4470
-4460
-4450
-4430
-4430
-4400
-4390
-4350
-4320
-4310
-4260
-4250
-4210
-4190
-4150
-4110
-4080
-4060
-4030
-4010
-3970
-3970
-3940
-3910
-3900
-3890
-3870
-3860
-3850
-3850
-3830
-3830
-3820
-3830
-3830
-3840
-3840
-3850
-3870
-3900
-3910
-3930
-3940
-3980
-3990
-4000
-4030
-4040
-4090
-4110
-4140
-4170
-4190
-4230
-4260
-4290
-4340
-4350
-4390
-4410
-4430
-4450
-4460
-4510
-4510
-4530
-4550
-4550
-4570
-4570
-4590
-4590
-4590
-4610
-4590
-4590
-4590
-4560
-4580
-4550
-4530
-4530
-4500
-4490
-4460
-4430
-4420
-4390
-4360
-4340
-4310
-4290
-4250
-4230
-4190
-4160
-4130
-4090
-4070
-4030
-4020
-3980
-3980
-3950
-3920
-3910
-3900
-3880
-3870
-3870
-3870
-3870
-3870
-3880
-3870
-3890
-3890
-3900
-3920
-3920
-3940
-3950
-3960
-3990
-4000
-4050
-4070
-4110
-4150
-4170
-4210
-4240
-4270
-4290
-4320
-4360
-4380
-4410
-4440
-4460
-4500
-4510
-4520
-4560
-4560
-4590
-4590
-4620
-4630
-4630
-4650
-4640
-4670
-4660
-4650
-4650
-4640
-4640
-4620
-4600
-4610
-4570
-4560
-4550
-4500
-4500
-4460
-4440
-4410
-4390
-4360
-4320
-4300
-4260
-4230
-4210
-4170
-4150
-4120
-4090
-4080
-4030
-4030
-3980
-3970
-3970
-3940
-3930
-3910
-3900
-3910
-3900
-3910
-3920
-3930
-3950
-3940
-3970
-3970
-3990
-4000
-4000
-4040
-4060
-4090
-4110
-4130
-4160
-4180
-4220
-4240
-4270
-4310
-4330
-4380
-4390
-4430
-4460
-4480
-4520
-4540
-4560
-4580
-4590
-4630
-4640
-4650
-4680
-4660
-4680
-4680
-4700
-4690
-4700
-4710
-4710
-4700
-4690
-4670
-4670
-4640
-4620
-4610
-4580
-4570
-4530
-4510
-4490
-4460
-4440
-4400
-4380
-4340
-4310
-4290
-4250
-4230
-4200
-4180
-4150
-4120
-4110
-4080
-4070
-4050
-4020
-4020
-4010
-3990
-3990
-3970
-3980
-3970
-3970
-3980
-3980
-4000
-4000
-4020
-4050
-4060
-4090
-4100
-4120
-4150
-4160
-4190
-4220
-4250
-4280
-4310
-4350
-4360
-4400
-4440
-4470
-4500
-4520
-4550
-4580
-4600
-4620
-4650
-4660
-4690
-4690
-4710
-4720
-4720
-4730
-4740
-4740
-4740
-4750
-4750
-4740
-4730
-4730
-4720
-4710
-4690
-4690
-4660
-4650
-4610
-4590
-4570
-4530
-4520
-4490
-4460
-4430
-4390
-4360
-4330
-4300
-4270
-4240
-4230
-4190
-4170
-4150
-4130
-4120
-4090
-4080
-4070
-4060
-4050
-4030
-4040
-4040
-4030
-4050
-4030
-4060
-4060
-4070
-4090
-4090
-4110
-4140
-4150
-4180
-4190
-4230
-4250
-4270
-4310
-4320
-4360
-4380
-4420
-4450
-4480
-4520
-4560
-4580
-4610
-4640
-4650
-4680
-4690
-4710
-4720
-4750
-4750
-4760
-4790
-4770
-4790
-4780
-4780
-4780
-4780
-4790
-4770
-4790
-4780
-4760
-4740
-4710
-4700
-4680
-4640
-4640
-4600
-4580
-4550
-4530
-4490
-4470
-4430
-4410
-4380
-4350
-4320
-4300
-4280
-4250
-4230
-4200
-4190
-4170
-4140
-4130
-4110
-4100
-4100
-4080
-4090
-4080
-4080
-4090
-4090
-4110
-4110
-4140
-4150
-4160
-4180
-4200
-4220
-4240
-4250
-4290
-4310
-4340
-4370
-4400
-4420
-4450
-4490
-4510
-4560
-4570
-4600
-4640
-4660
-4680
-4710
-4730
-4750
-4770
-4780
-4800
-4810
-4830
-4830
-4850
-4850
-4850
-4860
-4850
-4840
-4850
-4820
-4830
-4790
-4790
-4770
-4760
-4750
-4730
-4720
-4690
-4660
-4650
-4610
-4590
-4550
-4510
-4490
-4450
-4420
-4390
-4360
-4340
-4300
-4290
-4260
-4250
-4220
-4200
-4190
-4160
-4150
-4150
-4130
-4150
-4130
-4140
-4150
-4140
-4160
-4150
-4160
-4180
-4180
-4220
-4210
-4250
-4280
-4290
-4330
-4350
-4380
-4410
-4440
-4470
-4490
-4530
-4560
-4580
-4620
-4640
-4670
-4700
-4720
-4760
-4750
-4790
-4800
-4810
-4840
-4840
-4870
-4890
-4890
-4920
-4900
-4910
-4910
-4910
-4910
-4900
-4920
-4890
-4890
-4880
-4840
-4830
-4790
-4760
-4740
-4710
-4710
-4670
-4640
-4620
-4580
-4570
-4530
-4510
-4490
-4460
-4440
-4410
-4380
-4360
-4330
-4310
-4290
-4280
-4270
-4230
-4240
-4210
-4210
-4200
-4190
-4200
-4190
-4200
-4200
-4210
-4230
-4220
-4240
-4250
-4280
-4300
-4310
-4340
-4360
-4380
-4410
-4430
-4470
-4490
-4530
-4560
-4590
-4630
-4660
-4690
-4730
-4750
-4790
-4800
-4820
-4850
-4850
-4890
-4890
-4910
-4930
-4930
-4960
-4960
-4970
-4980
-4970
-4970
-4970
-4960
-4960
-4930
-4940
-4900
-4900
-4860
-4850
-4840
-4800
-4790
-4760
-4730
-4710
-4670
-4650
-4620
-4600
-4580
-4530
-4520
-4480
-4450
-4430
-4390
-4370
-4340
-4320
-4310
-4300
-4290
-4280
-4260
-4270
-4260
-4270
-4250
-4260
-4270
-4280
-4290
-4290
-4310
-4310
-4330
-4350
-4370
-4390
-4410
-4430
-4460
-4470
-4510
-4540
-4560
-4600
-4620
-4660
-4680
-4710
-4760
-4770
-4810
-4830
-4860
-4890
-4900
-4930
-4950
-4970
-4990
-4990
-5010
-5010
-5010
-5020
-5000
-5030
-5010
-5010
-5000
-4970
-4980
-4950
-4940
-4910
-4900
-4890
-4880
-4860
-4860
-4820
-4800
-4760
-4730
-4710
-4660
-4640
-4610
-4570
-4550
-4510
-4500
-4460
-4450
-4420
-4390
-4390
-4360
-4340
-4340
-4320
-4330
-4300
-4310
-4300
-4290
-4300
-4300
-4300
-4320
-4320
-4350
-4350
-4380
-4400
-4400
-4440
-4450
-4470
-4500
-4530
-4570
-4570
-4620
-4650
-4670
-4720
-4730
-4780
-4810
-4830
-4860
-4870
-4920
-4930
-4950
-4970
-4990
-5020
-5030
-5050
-5070
-5070
-5080
-5070
-5070
-5070
-5050
-5070
-5040
-5040
-5030
-5010
-5010
-4980
-4960
-4940
-4920
-4900
-4870
-4850
-4840
-4790
-4790
-4730
-4720
-4690
-4650
-4640
-4600
-4570
-4550
-4520
-4510
-4470
-4450
-4440
-4410
-4390
-4370
-4360
-4330
-4310
-4320
-4310
-4320
-4310
-4330
-4340
-4360
-4370
-4380
-4380
-4410
-4420
-4460
-4470
-4510
-4550
-4570
-4630
-4650
-4680
-4710
-4730
-4770
-4780
-4820
-4850
-4870
-4910
-4920
-4950
-4980
-4990
-5040
-5040
-5070
-5080
-5100
-5120
-5120
-5140
-5140
-5140
-5140
-5140
-5140
-5130
-5110
-5110
-5090
-5100
-5070
-5060
-5040
-5010
-5000
-4970
-4940
-4940
-4890
-4890
-4840
-4820
-4790
-4750
-4720
-4680
-4660
-4650
-4620
-4610
-4580
-4570
-4540
-4510
-4510
-4480
-4470
-4450
-4440
-4430
-4420
-4420
-4430
-4430
-4440
-4420
-4440
-4450
-4450
-4480
-4490
-4520
-4530
-4560
-4590
-4600
-4630
-4660
-4680
-4720
-4730
-4780
-4810
-4840
-4860
-4890
-4940
-4950
-4980
-5010
-5020
-5050
-5070
-5090
-5120
-5120
-5150
-5150
-5160
-5180
-5170
-5190
-5180
-5190
-5180
-5160
-5160
-5140
-5130
-5130
-5100
-5090
-5060
-5050
-5020
-5000
-4980
-4950
-4920
-4890
-4870
-4840
-4800
-4780
-4750
-4720
-4700
-4670
-4670
-4650
-4620
-4610
-4580
-4570
-4540
-4540
-4510
-4500
-4490
-4480
-4480
-4480
-4460
-4470
-4470
-4480
-4480
-4500
-4500
-4520
-4550
-4560
-4580
-4610
-4620
-4640
-4670
-4700
-4740
-4760
-4800
-4830
-4860
-4890
-4920
-4970
-4990
-5020
-5050
-5070
-5110
-5130
-5140
-5160
-5160
-5180
-5190
-5190
-5210
-5190
-5220
-5210
-5200
-5210
-5200
-5210
-5210
-5200
-5210
-5190
-5190
-5150
-5130
-5120
-5080
-5080
-5050
-5020
-5000
-4950
-4920
-4870
-4830
-4800
-4770
-4760
-4740
-4720
-4720
-4670
-4680
-4640
-4640
-4620
-4590
-4580
-4540
-4550
-4530
-4510
-4510
-4490
-4500
-4500
-4500
-4520
-4520
-4530
-4540
-4550
-4590
-4600
-4640
-4660
-4670
-4710
-4720
-4760
-4790
-4830
-4870
-4880
-4910
-4920
-4950
-5000
-5010
-5050
-5090
-5120
-5160
-5170
-5200
-5200
-5230
-5240
-5240
-5260
-5260
-5270
-5280
-5260
-5290
-5270
-5260
-5270
-5250
-5270
-5230
-5240
-5220
-5200
-5190
-5160
-5140
-5110
-5090
-5080
-5040
-5030
-5000
-4960
-4940
-4900
-4870
-4830
-4810
-4770
-4750
-4740
-4700
-4690
-4680
-4640
-4640
-4630
-4610
-4610
-4590
-4590
-4570
-4560
-4580
-4560
-4580
-4590
-4590
-4610
-4620
-4640
-4640
-4650
-4680
-4690
-4720
-4740
-4760
-4790
-4810
-4850
-4860
-4900
-4930
-4960
-5000
-5010
-5060
-5070
-5090
-5110
-5120
-5150
-5160
-5180
-5190
-5200
-5210
-5200
-5230
-5230
-5230
-5230
-5230
-5220
-5230
-5220
-5210
-5200
-5200
-5180
-5160
-5160
-5120
-5120
-5090
-5080
-5060
-5030
-5010
-4990
-4950
-4910
-4870
-4830
-4800
-4760
-4740
-4710
-4690
-4680
-4630
-4640
-4610
-4630
-4630
-4640
-4650
-4640
-4630
-4620
-4600
-4610
-4590
-4590
-4590
-4600
-4620
-4610
-4650
-4650
-4670
-4700
-4710
-4750
-4780
-4810
-4840
-4860
-4910
-4960
-4990
-5030
-5050
-5080
-5110
-5130
-5150
-5160
-5190
-5190
-5210
-5240
-5240
-5270
-5290
-5310
-5350
-5370
-5400
-5390
-5410
-5420
-5420
-5420
-5410
-5400
-5380
-5360
-5350
-5350
-5350
-5340
-5340
-5310
-5290
-5270
-5230
-5200
-5160
-5110
-5090
-5030
-4980
-4940
-4880
-4830
-4780
-4750
-4700
-4660
-4660
-4640
-4630
-4630
-4610
-4600
-4570
-4560
-4530
-4500
-4460
-4420
-4380
-4380
-4370
-4370
-4350
-4350
-4360
-4340
-4360
-4360
-4380
-4400
-4400
-4420
-4420
-4440
-4460
-4490
-4590
-4670
-4780
-4860
-4910
-4980
-5000
-5060
-5090
-5130
-5190
-5190
-5240
-5270
-5330
-5440
-5530
-5620
-5700
-5750
-5790
-5770
-5750
-5680
-5630
-5580
-5520
-5490
-5450
-5420
-5390
-5340
-5340
-5310
-5320
-5290
-5270
-5270
-5240
-5230
-5200
-5160
-5100
-5040
-4980
-4930
-4860
-4840
-4830
-4810
-4800
-4770
-4730
-4680
-4640
-4610
-4570
-4560
-4540
-4550
-4540
-4530
-4530
-4510
-4520
-4510
-4480
-4500
-4480
-4490
-4490
-4490
-4520
-4530
-4590
-4620
-4650
-4690
-4690
-4740
-4740
-4750
-4790
-4820
-4870
-4900
-4980
-5080
-5160
-5230
-5250
-5280
-5310
-5340
-5370
-5370
-5360
-5340
-5320
-5310
-5290
-5290
-5290
-5290
-5310
-5290
-5300
-5300
-5300
-5300
-5280
-5280
-5260
-5270
-5270
-5270
-5260
-5250
-5220
-5200
-5160
-5180
-5160
-5170
-5170
-5150
-5160
-5140
-5090
-5050
-4980
-4950
-4890
-4860
-4850
-4820
-4820
-4790
-4760
-4750
-4710
-4690
-4640
-4620
-4600
-4610
-4660
-4700
-4760
-4770
-4780
-4770
-4750
-4740
-4750
-4720
-4730
-4730
-4760
-4800
-4840
-4880
-4890
-4940
-4940
-4970
-5010
-5050
-5110
-5150
-5170
-5180
-5160
-5140
-5110
-5110
-5120
-5130
-5180
-5240
-5270
-5280
-5210
-5180
-5170
-5140
-5100
-5010
-4970
-4900
-4860
-4820
-4810
-4820
-4810
-4800
-4800
-4780
-4770
-4720
-4720
-4710
-4670
-4630
-4570
-4580
-4620
-4680
-4740
-4760
-4810
-4840
-4860
-4900
-4900
-4960
-4970
-4980
-5000
-5000
-5040
-5040
-5040
-5030
-5000
-4980
-4930
-4860
-4820
-4780
-4750
-4770
-4790
-4860
-4940
-5060
-5120
-5170
-5210
-5250
-5290
-5310
-5300
-5300
-5280
-5280
-5220
-5170
-5120
-5100
-5100
-5080
-5080
-5030
-4960
-4880
-4800
-4740
-4720
-4720
-4760
-4780
-4820
-4880
-4960
-5070
-5150
-5200
-5190
-5110
-5010
-4890
-4800
-4730
-4710
-4740
-4720
-4740
-4750
-4730
-4720
-4700
-4710
-4650
-4610
-4570
-4490
-4430
-4380
-4360
-4380
-4380
-4440
-4480
-4520
-4560
-4590
-4660
-4730
-4770
-4780
-4710
-4660
-4550
-4420
-4300
-4210
-4230
-4250
-4310
-4350
-4380
-4420
-4420
-4460
-4550
-4590
-4690
-4760
-4850
-4870
-4900
-4950
-5000
-5060
-5080
-5080
-5070
-5020
-4970
-4890
-4820
-4780
-4760
-4790
-4850
-4970
-5140
-5260
-5400
-5490
-5590
-5660
-5720
-5830
-5930
-6000
-6050
-6070
-6080
-6020
-5930
-5860
-5760
-5710
-5630
-5560
-5480
-5400
-5350
-5260
-5170
-5060
-4900
-4790
-4690
-4610
-4540
-4450
-4430
-4420
-4430
-4440
-4420
-4420
-4350
-4310
-4240
-4180
-4190
-4260
-4420
-4590
-4730
-4840
-4880
-4960
-5030
-5100
-5150
-5130
-5140
-5110
-5120
-5150
-5240
-5380
-5490
-5560
-5570
-5520
-5500
-5480
-5470
-5500
-5530
-5570
-5560
-5550
-5570
-5550
-5570
-5530
-5500
-5470
-5430
-5400
-5330
-5300
-5310
-5330
-5350
-5390
-5470
-5550
-5610
-5630
-5600
-5550
-5500
-5450
-5410
-5340
-5320
-5300
-5240
-5190
-5110
-5080
-5010
-4930
-4800
-4710
-4680
-4700
-4690
-4690
-4670
-4660
-4580
-4500
-4420
-4320
-4300
-4300
-4330
-4410
-4500
-4610
-4660
-4720
-4750
-4720
-4670
-4630
-4640
-4690
-4710
-4790
-4840
-4890
-4930
-4950
-4990
-5030
-5070
-5110
-5150
-5170
-5190
-5230
-5270
-5380
-5460
-5560
-5680
-5800
-5940
-6050
-6080
-6120
-6080
-6010
-5940
-5850
-5810
-5760
-5720
-5730
-5720
-5740
-5720
-5710
-5690
-5650
-5630
-5640
-5660
-5670
-5610
-5580
-5530
-5470
-5430
-5380
-5350
-5300
-5310
-5300
-5340
-5380
-5390
-5350
-5280
-5150
-5030
-4880
-4760
-4690
-4690
-4710
-4710
-4650
-4500
-4390
-4360
-4320
-4360
-4400
-4430
-4450
-4450
-4480
-4470
-4440
-4410
-4370
-4370
-4410
-4470
-4560
-4630
-4760
-4900
-5040
-5200
-5310
-5460
-5570
-5650
-5650
-5610
-5600
-5610
-5670
-5750
-5810
-5900
-5930
-5930
-5920
-5920
-5970
-6050
-6150
-6240
-6260
-6270
-6240
-6230
-6190
-6210
-6250
-6290
-6320
-6300
-6240
-6180
-6090
-6030
-5960
-5890
-5820
-5780
-5780
-5790
-5820
-5820
-5780
-5700
-5580
-5440
-5310
-5170
-5080
-4980
-4910
-4840
-4770
-4730
-4670
-4650
-4650
-4660
-4710
-4760
-4820
-4860
-4850
-4850
-4820
-4790
-4790
-4830
-4930
-5050
-5120
-5210
-5220
-5230
-5210
-5210
-5240
-5260
-5290
-5260
-5250
-5230
-5230
-5240
-5250
-5320
-5390
-5480
-5540
-5570
-5620
-5640
-5680
-5730
-5750
-5810
-5840
-5830
-5800
-5750
-5700
-5640
-5620
-5590
-5550
-5510
-5480
-5490
-5500
-5470
-5470
-5420
-5370
-5360
-5360
-5420
-5510
-5650
-5740
-5830
-5890
-5880
-5800
-5690
-5610
-5570
-5520
-5500
-5460
-5410
-5390
-5290
-5200
-5060
-4950
-4870
-4780
-4770
-4740
-4720
-4680
-4640
-4640
-4630
-4620
-4580
-4560
-4630
-4730
-4820
-4870
-4890
-4930
-4930
-4920
-4890
-4860
-4900
-4960
-5050
-5110
-5150
-5230
-5290
-5420
-5580
-5740
-5940
-6050
-6070
-6060
-5980
-5930
-5890
-5910
-5960
-6020
-6100
-6140
-6210
-6240
-6260
-6300
-6280
-6320
-6350
-6370
-6370
-6280
-6200
-6090
-6030
-5970
-5920
-5870
-5830
-5800
-5780
-5760
-5730
-5690
-5630
-5590
-5520
-5480
-5440
-5420
-5430
-5420
-5390
-5290
-5140
-5040
-4980
-4980
-4970
-4970
-5030
-5060
-5070
-5030
-4980
-4940
-4930
-4950
-4940
-4940
-4950
-4960
-5040
-5130
-5300
-5450
-5530
-5540
-5490
-5450
-5450
-5490
-5540
-5560
-5560
-5520
-5430
-5350
-5240
-5200
-5160
-5100
-5080
-5080
-5150
-5190
-5250
-5320
-5370
-5460
-5580
-5740
-5900
-6060
-6220
-6360
-6440
-6530
-6570
-6690
-6800
-6910
-6950
-6880
-6770
-6650
-6540
-6490
-6430
-6400
-6330
-6270
-6180
-6100
-6030
-5940
-5880
-5800
-5690
-5630
-5540
-5460
-5350
-5250
-5170
-5090
-5020
-4980
-4900
-4800
-4690
-4640
-4650
-4600
-4510
-4390
-4310
-4230
-4230
-4260
-4290
-4400
-4530
-4670
-4850
-5020
-5150
-5230
-5330
-5430
-5580
-5790
-5950
-6080
-6180
-6200
-6230
-6220
-6230
-6230
-6210
-6190
-6170
-6160
-6170
-6170
-6190
-6200
-6220
-6240
-6260
-6320
-6350
-6390
-6380
-6390
-6420
-6400
-6420
-6420
-6400
-6400
-6390
-6370
-6370
-6350
-6340
-6290
-6260
-6200
-6150
-6090
-6020
-5970
-5920
-5850
-5810
-5740
-5710
-5670
-5620
-5560
-5520
-5490
-5450
-5350
-5230
-5080
-4970
-4860
-4780
-4730
-4670
-4640
-4600
-4560
-4530
-4580
-4700
-4860
-5060
-5230
-5300
-5360
-5340
-5330
-5330
-5360
-5470
-5560
-5630
-5650
-5610
-5560
-5530
-5550
-5630
-5710
-5790
-5830
-5870
-5890
-5910
-5940
-5940
-5980
-6000
-6040
-6110
-6150
-6220
-6260
-6270
-6320
-6330
-6360
-6350
-6340
-6320
-6290
-6250
-6200
-6150
-6100
-6040
-6000
-5950
-5890
-5860
-5810
-5800
-5760
-5740
-5700
-5640
-5570
-5480
-5420
-5440
-5500
-5580
-5610
-5600
-5580
-5490
-5400
-5300
-5260
-5220
-5190
-5190
-5160
-5170
-5120
-5080
-5090
-5100
-5190
-5280
-5400
-5490
-5530
-5510
-5460
-5380
-5340
-5320
-5350
-5360
-5390
-5450
-5460
-5500
-5500
-5490
-5490
-5470
-5490
-5510
-5510
-5550
-5570
-5610
-5650
-5700
-5750
-5810
-5890
-5950
-6010
-6070
-6120
-6150
-6160
-6190
-6200
-6210
-6280
-6300
-6360
-6400
-6400
-6430
-6420
-6440
-6460
-6450
-6450
-6420
-6410
-6380
-6320
-6290
-6230
-6170
-6110
-6040
-5990
-5910
-5860
-5780
-5730
-5680
-5610
-5560
-5500
-5430
-5380
-5310
-5270
-5190
-5120
-5070
-4990
-4950
-4900
-4850
-4830
-4810
-4810
-4770
-4710
-4660
-4660
-4700
-4750
-4780
-4820
-4810
-4900
-5010
-5150
-5300
-5440
-5620
-5760
-5870
-5930
-5940
-5990
-6010
-6060
-6100
-6150
-6190
-6210
-6240
-6230
-6200
-6220
-6210
-6250
-6250
-6270
-6290
-6290
-6340
-6350
-6370
-6390
-6380
-6380
-6380
-6370
-6360
-6330
-6320
-6280
-6250
-6230
-6190
-6170
-6130
-6090
-6050
-6000
-5970
-5910
-5860
-5810
-5760
-5700
-5620
-5590
-5550
-5520
-5500
-5460
-5440
-5410
-5370
-5340
-5290
-5270
-5230
-5210
-5190
-5160
-5150
-5110
-5110
-5090
-5090
-5090
-5090
-5100
-5110
-5120
-5150
-5140
-5120
-5110
-5080
-5070
-5060
-5050
-5060
-5110
-5170
-5250
-5320
-5390
-5470
-5570
-5670
-5770
-5830
-5850
-5890
-5930
-5990
-6050
-6080
-6150
-6230
-6340
-6480
-6550
-6580
-6540
-6470
-6350
-6170
-6030
-5900
-5820
-5740
-5660
-5580
-5490
-5470
-5490
-5550
-5660
-5750
-5860
-5910
-5940
-5950
-5910
-5910
-5920
-5980
-6060
-6110
-6200
-6180
-6150
-6040
-5910
-5810
-5670
-5600
-5520
-5460
-5440
-5400
-5380
-5380
-5360
-5370
-5360
-5370
-5370
-5370
-5400
-5400
-5430
-5440
-5450
-5490
-5490
-5540
-5580
-5610
-5660
-5680
-5740
-5770
-5810
-5870
-5890
-5950
-5970
-6020
-6060
-6080
-6130
-6160
-6170
-6220
-6230
-6260
-6280
-6300
-6320
-6320
-6330
-6320
-6330
-6330
-6310
-6310
-6300
-6280
-6290
-6260
-6250
-6210
-6180
-6150
-6090
-6080
-6010
-5990
-5930
-5860
-5830
-5780
-5740
-5710
-5650
-5630
-5570
-5550
-5520
-5480
-5470
-5420
-5390
-5350
-5300
-5290
-5250
-5240
-5220
-5220
-5230
-5220
-5220
-5210
-5210
-5210
-5210
-5230
-5240
-5250
-5290
-5310
-5340
-5360
-5390
-5430
-5440
-5480
-5510
-5550
-5610
-5650
-5720
-5760
-5830
-5860
-5900
-5960
-6000
-6060
-6110
-6150
-6200
-6230
-6270
-6300
-6300
-6330
-6310
-6330
-6320
-6310
-6330
-6330
-6360
-6350
-6350
-6340
-6320
-6310
-6280
-6260
-6230
-6170
-6160
-6110
-6060
-6010
-5950
-5910
-5850
-5800
-5760
-5690
-5660
-5590
-5540
-5510
-5480
-5460
-5420
-5390
-5360
-5310
-5280
-5220
-5190
-5160
-5150
-5140
-5130
-5130
-5140
-5120
-5120
-5120
-5150
-5140
-5160
-5190
-5200
-5250
-5270
-5310
-5360
-5400
-5450
-5490
-5520
-5590
-5600
-5650
-5690
-5740
-5780
-5810
-5870
-5900
-5950
-5980
-6010
-6060
-6080
-6120
-6170
-6210
-6260
-6300
-6330
-6380
-6410
-6430
-6440
-6460
-6450
-6440
-6440
-6410
-6400
-6370
-6330
-6320
-6260
-6240
-6210
-6170
-6130
-6080
-6070
-6020
-5980
-5950
-5890
-5850
-5800
-5760
-5720
-5660
-5620
-5580
-5540
-5510
-5460
-5440
-5400
-5370
-5350
-5310
-5310
-5270
-5270
-5260
-5250
-5250
-5240
-5240
-5250
-5240
-5280
-5290
-5310
-5340
-5360
-5400
-5420
-5450
-5490
-5520
-5580
-5600
-5640
-5700
-5720
-5800
-5820
-5880
-5920
-5950
-6000
-6030
-6060
-6090
-6110
-6140
-6150
-6180
-6190
-6220
-6240
-6230
-6240
-6260
-6240
-6250
-6240
-6250
-6260
-6260
-6280
-6240
-6230
-6200
-6150
-6130
-6070
-6060
-6000
-5950
-5930
-5870
-5850
-5800
-5760
-5730
-5680
-5660
-5610
-5580
-5560
-5520
-5510
-5490
-5460
-5440
-5430
-5410
-5380
-5370
-5330
-5290
-5290
-5260
-5280
-5270
-5300
-5310
-5330
-5340
-5360
-5380
-5400
-5420
-5460
-5480
-5520
-5560
-5590
-5660
-5690
-5750
-5800
-5820
-5880
-5900
-5940
-5980
-6000
-6060
-6090
-6120
-6160
-6180
-6220
-6240
-6270
-6290
-6300
-6320
-6320
-6340
-6340
-6340
-6340
-6320
-6320
-6310
-6290
-6280
-6250
-6240
-6200
-6170
-6130
-6080
-6050
-6010
-5950
-5920
-5860
-5820
-5770
-5720
-5680
-5610
-5560
-5500
-5450
-5410
-5360
-5350
-5320
-5300
-5300
-5280
-5270
-5230
-5200
-5180
-5140
-5140
-5110
-5100
-5090
-5050
-5070
-5070
-5080
-5100
-5110
-5160
-5190
-5230
-5270
-5290
-5340
-5370
-5430
-5480
-5530
-5600
-5650
-5720
-5770
-5850
-5910
-5960
-6020
-6070
-6110
-6150
-6170
-6220
-6240
-6260
-6290
-6290
-6340
-6350
-6370
-6400
-6410
-6430
-6450
-6450
-6450
-6430
-6440
-6410
-6380
-6350
-6310
-6300
-6260
-6250
-6250
-6200
-6190
-6140
-6130
-6090
-6040
-6010
-5950
-5910
-5860
-5820
-5780
-5720
-5700
-5650
-5600
-5570
-5510
-5490
-5460
-5430
-5420
-5390
-5390
-5360
-5340
-5330
-5300
-5310
-5310
-5300
-5300
-5270
-5290
-5260
-5270
-5290
-5290
-5320
-5330
-5350
-5380
-5400
-5450
-5500
-5560
-5610
-5650
-5700
-5720
-5760
-5780
-5800
-5840
-5870
-5920
-5990
-6010
-6070
-6110
-6150
-6180
-6180
-6200
-6190
-6200
-6210
-6190
-6190
-6170
-6200
-6200
-6200
-6230
-6230
-6240
-6260
-6250
-6240
-6200
-6200
-6170
-6140
-6130
-6090
-6080
-6040
-6000
-5970
-5900
-5870
-5800
-5750
-5710
-5660
-5640
-5590
-5570
-5540
-5510
-5510
-5500
-5460
-5480
-5450
-5470
-5440
-5430
-5440
-5430
-5460
-5480
-5500
-5530
-5550
-5590
-5600
-5630
-5640
-5650
-5710
-5710
-5750
-5790
-5810
-5860
-5880
-5920
-5950
-5990
-6040
-6070
-6130
-6160
-6190
-6220
-6230
-6270
-6280
-6310
-6340
-6350
-6380
-6400
-6400
-6430
-6410
-6420
-6420
-6410
-6400
-6380
-6360
-6330
-6310
-6300
-6250
-6220
-6170
-6140
-6110
-6070
-6040
-5980
-5950
-5900
-5860
-5840
-5810
-5780
-5760
-5730
-5700
-5660
-5630
-5580
-5550
-5510
-5490
-5470
-5450
-5420
-5420
-5390
-5400
-5390
-5400
-5410
-5400
-5420
-5420
-5430
-5440
-5450
-5480
-5490
-5500
-5540
-5560
-5600
-5610
-5670
-5690
-5730
-5780
-5830
-5890
-5920
-5970
-6020
-6060
-6090
-6130
-6150
-6210
-6220
-6260
-6280
-6290
-6310
-6320
-6340
-6370
-6350
-6380
-6370
-6390
-6390
-6380
-6380
-6360
-6350
-6340
-6300
-6300
-6250
-6220
-6180
-6140
-6110
-6060
-6040
-6000
-5960
-5920
-5860
-5820
-5790
-5720
-5700
-5650
-5620
-5580
-5550
-5530
-5480
-5470
-5430
-5410
-5410
-5380
-5390
-5370
-5350
-5340
-5310
-5320
-5300
-5320
-5310
-5300
-5310
-5300
-5330
-5350
-5380
-5430
-5450
-5480
-5540
-5560
-5610
-5640
-5690
-5740
-5770
-5840
-5890
-5960
-6020
-6070
-6120
-6150
-6210
-6240
-6270
-6310
-6310
-6350
-6390
-6400
-6430
-6430
-6450
-6450
-6450
-6470
-6450
-6470
-6430
-6430
-6420
-6390
-6390
-6340
-6310
-6290
-6240
-6210
-6180
-6140
-6130
-6060
-6030
-5980
-5940
-5890
-5840
-5810
-5750
-5720
-5680
-5630
-5600
-5560
-5520
-5500
-5470
-5440
-5400
-5380
-5360
-5320
-5310
-5290
-5280
-5270
-5270
-5290
-5260
-5270
-5280
-5280
-5320
-5330
-5360
-5370
-5410
-5450
-5480
-5540
-5540
-5580
-5620
-5640
-5680
-5730
-5760
-5820
-5850
-5890
-5930
-5970
-6010
-6030
-6070
-6080
-6110
-6150
-6190
-6220
-6220
-6250
-6260
-6270
-6290
-6290
-6290
-6310
-6290
-6300
-6270
-6260
-6250
-6220
-6220
-6170
-6170
-6120
-6100
-6060
-6010
-5950
-5910
-5840
-5820
-5770
-5750
-5700
-5660
-5630
-5590
-5570
-5540
-5510
-5490
-5460
-5470
-5450
-5440
-5450
-5430
-5430
-5400
-5380
-5370
-5350
-5350
-5340
-5350
-5360
-5350
-5370
-5380
-5390
-5420
-5420
-5450
-5460
-5490
-5540
-5540
-5600
-5620
-5660
-5710
-5730
-5800
-5840
-5870
-5910
-5950
-6000
-6020
-6080
-6100
-6140
-6170
-6200
-6220
-6250
-6260
-6290
-6290
-6320
-6330
-6330
-6340
-6320
-6330
-6320
-6310
-6310
-6270
-6280
-6250
-6230
-6200
-6160
-6150
-6090
-6080
-6040
-5980
-5960
-5880
-5850
-5790
-5740
-5700
-5660
-5630
-5590
-5560
-5530
-5500
-5470
-5450
-5410
-5380
-5350
-5310
-5280
-5260
-5240
-5220
-5220
-5220
-5230
-5260
-5280
-5310
-5320
-5340
-5370
-5390
-5420
-5460
-5490
-5540
-5540
-5570
-5600
-5640
-5710
-5760
-5820
-5870
-5920
-5960
-5980
-6000
-6020
-6050
-6080
-6120
-6160
-6190
-6210
-6240
-6250
-6280
-6290
-6310
-6320
-6320
-6340
-6340
-6340
-6350
-6320
-6330
-6310
-6310
-6290
-6250
-6230
-6190
-6170
-6150
-6110
-6120
-6080
-6050
-6020
-5970
-5930
-5880
-5820
-5800
-5750
-5730
-5670
-5640
-5610
-5560
-5540
-5480
-5470
-5430
-5400
-5390
-5350
-5350
-5340
-5330
-5330
-5320
-5340
-5340
-5350
-5370
-5380
-5410
-5410
-5440
-5460
-5480
-5510
-5530
-5560
-5590
-5630
-5680
-5710
-5760
-5810
-5850
-5920
-5940
-6010
-6040
-6070
-6120
-6140
-6180
-6220
-6240
-6290
-6320
-6340
-6360
-6370
-6390
-6380
-6400
-6400
-6410
-6420
-6400
-6410
-6390
-6380
-6370
-6320
-6320
-6280
-6240
-6220
-6160
-6140
-6110
-6060
-6040
-5970
-5960
-5890
-5860
-5820
-5780
-5740
-5700
-5660
-5630
-5580
-5550
-5520
-5480
-5460
-5430
-5420
-5380
-5390
-5370
-5360
-5370
-5350
-5360
-5360
-5360
-5380
-5370
-5390
-5390
-5420
-5450
-5450
-5470
-5500
-5530
-5560
-5590
-5640
-5660
-5710
-5760
-5780
-5840
-5870
-5890
-5940
-5970
-6040
-6090
-6140
-6210
-6230
-6280
-6290
-6330
-6350
-6370
-6380
-6390
-6400
-6410
-6400
-6420
-6390
-6390
-6370
-6380
-6360
-6340
-6320
-6300
-6280
-6270
-6240
-6210
-6170
-6120
-6080
-6020
-5990
-5940
-5890
-5860
-5800
-5760
-5720
-5690
-5650
-5610
-5570
-5530
-5490
-5490
-5470
-5460
-5440
-5430
-5440
-5410
-5390
-5370
-5360
-5370
-5380
-5410
-5410
-5450
-5470
-5480
-5490
-5490
-5520
-5540
-5560
-5590
-5620
-5650
-5690
-5720
-5770
-5800
-5850
-5880
-5930
-5970
-6010
-6050
-6090
-6120
-6160
-6190
-6220
-6240
-6280
-6290
-6300
-6330
-6330
-6350
-6360
-6360
-6380
-6380
-6370
-6380
-6350
-6350
-6320
-6310
-6300
-6260
-6260
-6220
-6200
-6180
-6140
-6110
-6070
-6040
-5990
-5950
-5920
-5850
-5830
-5790
-5730
-5710
-5660
-5630
-5600
-5570
-5550
-5510
-5480
-5450
-5430
-5420
-5380
-5380
-5380
-5370
-5370
-5350
-5380
-5380
-5390
-5410
-5410
-5440
-5470
-5480
-5520
-5510
-5540
-5580
-5580
-5640
-5650
-5710
-5730
-5770
-5810
-5850
-5910
-5950
-6010
-6060
-6090
-6140
-6160
-6180
-6210
-6220
-6260
-6270
-6310
-6320
-6330
-6350
-6350
-6370
-6370
-6350
-6340
-6340
-6340
-6330
-6320
-6320
-6300
-6290
-6280
-6250
-6220
-6160
-6140
-6100
-6050
-6020
-5970
-5950
-5910
-5860
-5840
-5780
-5740
-5680
-5650
-5600
-5580
-5560
-5530
-5510
-5480
-5430
-5410
-5390
-5370
-5360
-5340
-5360
-5340
-5360
-5370
-5380
-5400
-5420
-5450
-5480
-5490
-5520
-5520
-5550
-5570
-5590
-5630
-5650
-5690
-5720
-5760
-5820
-5840
-5900
-5950
-5980
-6030
-6050
-6100
-6140
-6150
-6200
-6210
-6250
-6260
-6300
-6310
-6320
-6330
-6350
-6340
-6360
-6340
-6370
-6340
-6350
-6340
-6310
-6310
-6270
-6250
-6240
-6200
-6180
-6150
-6120
-6100
-6050
-6030
-6000
-5960
-5930
-5880
-5840
-5810
-5750
-5720
-5680
-5650
-5610
-5600
-5560
-5530
-5510
-5470
-5460
-5430
-5420
-5390
-5400
-5380
-5380
-5370
-5370
-5370
-5370
-5390
-5400
-5420
-5420
-5440
-5460
-5480
-5510
-5520
-5580
-5610
-5630
-5680
-5690
-5760
-5790
-5810
-5860
-5900
-5950
-5980
-6000
-6050
-6060
-6090
-6140
-6150
-6210
-6210
-6260
-6270
-6290
-6320
-6330
-6340
-6350
-6350
-6360
-6350
-6350
-6320
-6310
-6300
-6270
-6270
-6230
-6200
-6180
-6130
-6130
-6080
-6060
-6010
-5960
-5940
-5900
-5880
-5850
-5820
-5780
-5720
-5690
-5640
-5620
-5590
-5550
-5530
-5490
-5470
-5450
-5420
-5400
-5380
-5370
-5380
-5380
-5410
-5420
-5440
-5460
-5450
-5470
-5460
-5470
-5500
-5510
-5540
-5570
-5590
-5620
-5650
-5690
-5720
-5750
-5790
-5820
-5860
-5890
-5940
-5970
-5990
-6040
-6060
-6090
-6140
-6150
-6200
-6210
-6250
-6260
-6270
-6300
-6300
-6320
-6320
-6320
-6330
-6320
-6330
-6320
-6310
-6310
-6270
-6270
-6240
-6220
-6200
-6160
-6140
-6100
-6070
-6040
-5990
-5980
-5940
-5910
-5880
-5820
-5800
-5750
-5700
-5670
-5620
-5590
-5550
-5540
-5510
-5480
-5470
-5440
-5440
-5400
-5390
-5400
-5370
-5390
-5380
-5380
-5410
-5400
-5440
-5440
-5460
-5490
-5480
-5510
-5520
-5540
-5580
-5600
-5650
-5670
-5700
-5760
-5780
-5840
-5870
-5910
-5960
-5980
-6030
-6050
-6080
-6110
-6130
-6170
-6180
-6210
-6230
-6240
-6270
-6260
-6290
-6290
-6300
-6310
-6310
-6330
-6320
-6320
-6320
-6310
-6290
-6270
-6250
-6220
-6190
-6170
-6160
-6130
-6090
-6050
-6010
-5970
-5930
-5900
-5840
-5810
-5770
-5720
-5690
-5660
-5630
-5610
-5570
-5550
-5530
-5510
-5470
-5460
-5440
-5430
-5430
-5430
-5410
-5420
-5390
-5420
-5390
-5410
-5420
-5420
-5450
-5450
-5490
-5520
-5540
-5580
-5590
-5620
-5640
-5670
-5710
-5730
-5780
-5810
-5840
-5890
-5920
-5970
-6000
-6030
-6090
-6100
-6140
-6170
-6190
-6220
-6230
-6250
-6270
-6290
-6300
-6300
-6320
-6320
-6310
-6320
-6300
-6310
-6290
-6280
-6270
-6240
-6220
-6200
-6170
-6150
-6120
-6110
-6070
-6040
-6000
-5960
-5950
-5890
-5870
-5820
-5790
-5750
-5710
-5670
-5660
-5610
-5590
-5550
-5520
-5480
-5460
-5450
-5430
-5430
-5410
-5400
-5400
-5380
-5380
-5400
-5400
-5430
-5420
-5450
-5450
-5470
-5490
-5500
-5540
-5560
-5590
-5620
-5640
-5690
-5710
-5740
-5800
-5810
-5870
-5900
-5940
-5990
-6030
-6080
-6100
-6140
-6190
-6190
-6240
-6230
-6260
-6280
-6280
-6310
-6310
-6320
-6320
-6320
-6340
-6310
-6320
-6310
-6290
-6300
-6260
-6260
-6240
-6200
-6190
-6140
-6120
-6100
-6060
-6030
-5980
-5960
-5920
-5880
-5850
-5800
-5770
-5740
-5680
-5670
-5610
-5590
-5560
-5530
-5510
-5480
-5470
-5450
-5420
-5410
-5390
-5400
-5390
-5390
-5410
-5400
-5430
-5400
-5430
-5440
-5440
-5470
-5470
-5510
-5530
-5560
-5590
-5610
-5630
-5670
-5690
-5750
-5760
-5810
-5860
-5890
-5940
-5970
-6010
-6040
-6080
-6130
-6140
-6190
-6210
-6230
-6250
-6260
-6290
-6290
-6290
-6310
-6300
-6330
-6320
-6330
-6320
-6310
-6300
-6290
-6260
-6250
-6210
-6210
-6160
-6130
-6110
-6080
-6060
-6030
-5980
-5980
-5910
-5890
-5840
-5790
-5760
-5710
-5690
-5640
-5620
-5600
-5570
-5560
-5520
-5500
-5480
-5460
-5440
-5410
-5400
-5390
-5380
-5390
-5380
-5400
-5390
-5390
-5420
-5420
-5440
-5460
-5470
-5520
-5530
-5570
-5590
-5620
-5660
-5680
-5730
-5770
-5790
-5840
-5860
-5910
-5960
-5990
-6020
-6040
-6090
-6100
-6130
-6180
-6190
-6230
-6260
-6270
-6300
-6300
-6320
-6320
-6320
-6330
-6320
-6310
-6300
-6290
-6290
-6270
-6260
-6230
-6210
-6190
-6150
-6140
-6100
-6070
-6050
-6000
-6000
-5940
-5930
-5890
-5860
-5810
-5760
-5730
-5680
-5640
-5630
-5580
-5570
-5520
-5500
-5490
-5460
-5440
-5430
-5410
-5410
-5380
-5390
-5370
-5380
-5380
-5370
-5380
-5410
-5410
-5450
-5450
-5490
-5490
-5510
-5550
-5570
-5600
-5620
-5660
-5700
-5720
-5780
-5810
-5860
-5920
-5940
-5980
-6010
-6040
-6100
-6120
-6170
-6160
-6210
-6220
-6230
-6270
-6270
-6290
-6300
-6300
-6320
-6300
-6310
-6310
-6300
-6300
-6280
-6280
-6240
-6220
-6210
-6190
-6180
-6160
-6130
-6110
-6060
-6030
-5990
-5950
-5920
-5880
-5840
-5800
-5770
-5740
-5680
-5660
-5620
-5590
-5560
-5540
-5510
-5470
-5450
-5430
-5410
-5410
-5370
-5380
-5370
-5360
-5370
-5360
-5360
-5380
-5390
-5410
-5440
-5460
-5480
-5490
-5530
-5540
-5570
-5610
-5630
-5680
-5700
-5740
-5780
-5810
-5860
-5890
-5930
-5980
-6000
-6040
-6060
-6110
-6130
-6150
-6190
-6190
-6230
-6250
-6260
-6290
-6270
-6310
-6300
-6300
-6300
-6300
-6300
-6290
-6280
-6270
-6240
-6240
-6200
-6180
-6150
-6110
-6100
-6050
-6040
-6010
-5970
-5940
-5890
-5880
-5810
-5770
-5750
-5690
-5660
-5620
-5580
-5560
-5520
-5500
-5470
-5440
-5440
-5420
-5410
-5400
-5370
-5390
-5380
-5390
-5390
-5400
-5410
-5410
-5440
-5430
-5460
-5480
-5480
-5510
-5510
-5540
-5570
-5600
-5630
-5660
-5700
-5740
-5760
-5820
-5840
-5900
-5940
-5990
-6030
-6070
-6100
-6130
-6130
-6170
-6170
-6200
-6220
-6220
-6260
-6250
-6260
-6280
-6270
-6290
-6270
-6280
-6270
-6250
-6260
-6230
-6230
-6220
-6210
-6210
-6160
-6150
-6100
-6070
-6040
-5990
-5970
-5930
-5890
-5870
-5820
-5790
-5750
-5710
-5690
-5640
-5620
-5590
-5560
-5530
-5490
-5480
-5450
-5440
-5430
-5430
-5430
-5420
-5420
-5420
-5400
-5410
-5410
-5410
-5420
-5440
-5460
-5460
-5490
-5510
-5530
-5570
-5580
-5620
-5650
-5680
-5720
-5740
-5790
-5820
-5860
-5910
-5930
-5980
-6000
-6040
-6080
-6090
-6140
-6160
-6180
-6210
-6220
-6260
-6250
-6270
-6270
-6270
-6280
-6280
-6270
-6270
-6250
-6260
-6240
-6220
-6220
-6170
-6160
-6130
-6110
-6100
-6080
-6070
-6050
-6020
-5990
-5930
-5910
-5850
-5810
-5780
-5730
-5710
-5660
-5640
-5620
-5580
-5570
-5520
-5520
-5470
-5470
-5450
-5430
-5420
-5400
-5380
-5390
-5380
-5380
-5400
-5400
-5410
-5420
-5440
-5460
-5470
-5510
-5500
-5540
-5550
-5580
-5600
-5630
-5670
-5690
-5720
-5770
-5810
-5860
-5880
-5930
-5980
-6010
-6060
-6090
-6120
-6160
-6160
-6200
-6200
-6230
-6240
-6260
-6270
-6270
-6280
-6290
-6280
-6290
-6280
-6270
-6270
-6240
-6240
-6210
-6200
-6180
-6150
-6140
-6090
-6090
-6040
-6020
-5990
-5940
-5930
-5880
-5850
-5820
-5790
-5740
-5710
-5680
-5640
-5590
-5580
-5540
-5510
-5500
-5470
-5460
-5420
-5420
-5410
-5390
-5410
-5390
-5400
-5400
-5400
-5410
-5420
-5430
-5450
-5460
-5490
-5490
-5520
-5550
-5570
-5600
-5630
-5670
-5700
-5710
-5770
-5790
-5840
-5850
-5890
-5940
-5960
-6010
-6050
-6080
-6120
-6120
-6150
-6150
-6170
-6190
-6210
-6240
-6260
-6260
-6280
-6280
-6300
-6280
-6280
-6280
-6260
-6250
-6230
-6210
-6200
-6170
-6160
-6120
-6100
-6090
-6040
-6030
-5970
-5960
-5930
-5880
-5870
-5810
-5780
-5730
-5700
-5680
-5630
-5620
-5580
-5560
-5530
-5510
-5480
-5460
-5430
-5430
-5400
-5410
-5390
-5400
-5400
-5400
-5410
-5420
-5430
-5440
-5450
-5480
-5470
-5500
-5530
-5540
-5590
-5600
-5630
-5670
-5690
-5730
-5760
-5800
-5830
-5870
-5910
-5950
-5980
-6010
-6040
-6080
-6100
-6130
-6160
-6170
-6200
-6210
-6230
-6260
-6260
-6280
-6270
-6290
-6280
-6290
-6280
-6260
-6270
-6250
-6220
-6230
-6190
-6180
-6160
-6130
-6120
-6070
-6050
-6010
-5990
-5950
-5910
-5890
-5840
-5800
-5770
-5730
-5700
-5670
-5630
-5600
-5570
-5550
-5500
-5500
-5470
-5450
-5440
-5420
-5410
-5400
-5380
-5400
-5380
-5390
-5400
-5390
-5410
-5400
-5420
-5450
-5450
-5500
-5500
-5540
-5560
-5580
-5620
-5640
-5670
-5700
-5730
-5770
-5790
-5830
-5860
-5890
-5940
-5980
-6030
-6060
-6110
-6150
-6170
-6190
-6210
-6210
-6240
-6240
-6260
-6270
-6270
-6280
-6270
-6280
-6260
-6270
-6260
-6260
-6240
-6210
-6200
-6170
-6150
-6140
-6110
-6090
-6060
-6030
-6010
-5960
-5930
-5890
-5850
-5810
-5760
-5740
-5700
-5660
-5630
-5600
-5560
-5550
-5520
-5500
-5470
-5460
-5450
-5420
-5430
-5390
-5410
-5400
-5400
-5410
-5400
-5420
-5420
-5430
-5460
-5450
-5490
-5500
-5530
-5560
-5570
-5610
-5630
-5670
-5700
-5730
-5770
-5790
-5840
-5870
-5900
-5950
-5980
-6010
-6050
-6070
-6110
-6130
-6150
-6170
-6180
-6200
-6200
-6240
-6230
-6230
-6260
-6240
-6270
-6260
-6250
-6250
-6230
-6240
-6210
-6190
-6190
-6160
-6140
-6110
-6080
-6060
-6010
-6000
-5950
-5920
-5910
-5850
-5840
-5800
-5750
-5730
-5680
-5660
-5620
-5590
-5570
-5540
-5520
-5490
-5470
-5460
-5430
-5430
-5420
-5410
-5410
-5390
-5410
-5400
-5410
-5400
-5420
-5440
-5440
-5470
-5480
-5500
-5530
-5540
-5580
-5600
-5630
-5650
-5680
-5720
-5760
-5790
-5840
-5860
-5910
-5940
-5980
-6020
-6030
-6080
-6090
-6110
-6150
-6150
-6190
-6200
-6230
-6240
-6250
-6260
-6260
-6260
-6260
-6260
-6260
-6240
-6240
-6220
-6190
-6200
-6160
-6160
-6130
-6110
-6070
-6050
-6010
-5990
-5960
-5940
-5900
-5870
-5830
-5790
-5750
-5710
-5690
-5640
-5610
-5580
-5530
-5520
-5480
-5460
-5440
-5400
-5410
-5390
-5360
-5370
-5340
-5350
-5330
-5330
-5350
-5350
-5380
-5390
-5400
-5430
-5450
-5480
-5500
-5540
-5580
-5600
-5660
-5670
-5690
-5740
-5760
-5810
-5830
-5890
-5920
-5950
-6000
-6020
-6060
-6080
-6110
-6130
-6140
-6160
-6180
-6190
-6210
-6200
-6230
-6210
-6210
-6230
-6210
-6230
-6210
-6210
-6210
-6190
-6200
-6180
-6170
-6150
-6130
-6110
-6070
-6040
-6040
-5990
-5980
-5920
-5900
-5870
-5820
-5800
-5740
-5730
-5690
-5660
-5640
-5600
-5570
-5540
-5510
-5490
-5450
-5450
-5430
-5420
-5430
-5410
-5420
-5430
-5410
-5430
-5420
-5430
-5420
-5440
-5460
-5460
-5500
-5510
-5540
-5580
-5570
-5620
-5640
-5660
-5700
-5710
-5760
-5790
-5820
-5860
-5880
-5940
-5960
-5980
-6020
-6040
-6090
-6100
-6130
-6150
-6170
-6190
-6210
-6210
-6230
-6220
-6240
-6220
-6230
-6220
-6220
-6220
-6200
-6190
-6180
-6150
-6140
-6110
-6090
-6080
-6040
-6020
-5980
-5960
-5940
-5900
-5870
-5830
-5810
-5770
-5730
-5710
-5660
-5640
-5600
-5570
-5550
-5520
-5510
-5490
-5470
-5470
-5440
-5440
-5420
-5420
-5410
-5410
-5420
-5410
-5420
-5450
-5450
-5490
-5480
-5500
-5520
-5510
-5550
-5550
-5570
-5600
-5630
-5680
-5700
-5730
-5770
-5780
-5820
-5850
-5890
-5930
-5960
-6020
-6030
-6080
-6110
-6120
-6160
-6170
-6200
-6220
-6210
-6240
-6230
-6250
-6250
-6250
-6250
-6260
-6260
-6250
-6240
-6230
-6210
-6200
-6190
-6160
-6140
-6100
-6090
-6050
-6020
-5990
-5950
-5940
-5890
-5860
-5830
-5780
-5760
-5720
-5690
-5660
-5620
-5610
-5570
-5550
-5520
-5510
-5490
-5460
-5460
-5440
-5430
-5420
-5410
-5420
-5410
-5410
-5440
-5430
-5450
-5450
-5450
-5480
-5480
-5520
-5540
-5550
-5590
-5610
-5650
-5680
-5710
-5740
-5770
-5810
-5840
-5870
-5920
-5950
-5990
-6010
-6030
-6070
-6080
-6100
-6120
-6140
-6160
-6170
-6200
-6200
-6210
-6220
-6190
-6210
-6190
-6200
-6210
-6190
-6190
-6150
-6150
-6130
-6110
-6110
-6070
-6080
-6050
-6030
-6000
-5970
-5940
-5910
-5860
-5840
-5800
-5770
-5720
-5690
-5660
-5630
-5600
-5580
-5550
-5540
-5510
-5510
-5470
-5450
-5440
-5420
-5410
-5410
-5400
-5400
-5400
-5420
-5420
-5430
-5440
-5440
-5470
-5460
-5500
-5500
-5540
-5570
-5570
-5600
-5630
-5650
-5690
-5710
-5760
-5790
-5810
-5860
-5870
-5920
-5950
-5980
-6010
-6030
-6070
-6090
-6110
-6140
-6150
-6180
-6190
-6200
-6210
-6220
-6230
-6220
-6220
-6220
-6210
-6200
-6190
-6170
-6160
-6140
-6140
-6110
-6090
-6070
-6040
-6020
-5980
-5960
-5920
-5880
-5860
-5810
-5790
-5760
-5710
-5690
-5650
-5620
-5590
-5560
-5550
-5510
-5480
-5470
-5450
-5430
-5410
-5400
-5400
-5390
-5390
-5390
-5390
-5390
-5400
-5410
-5410
-5430
-5450
-5450
-5490
-5480
-5530
-5540
-5560
-5600
-5610
-5650
-5680
-5700
-5740
-5770
-5820
-5840
-5900
-5940
-5960
-5990
-6020
-6030
-6070
-6070
-6110
-6120
-6140
-6160
-6170
-6190
-6190
-6190
-6200
-6190
-6210
-6200
-6190
-6190
-6180
-6190
-6150
-6150
-6110
-6090
-6070
-6040
-6010
-5990
-5940
-5920
-5890
-5850
-5830
-5790
-5760
-5710
-5680
-5640
-5600
-5590
-5550
-5540
-5530
-5520
-5510
-5490
-5480
-5450
-5440
-5420
-5390
-5390
-5370
-5370
-5380
-5380
-5410
-5400
-5410
-5420
-5420
-5440
-5460
-5480
-5500
-5530
-5570
-5580
-5620
-5650
-5660
-5710
-5730
-5760
-5800
-5820
-5870
-5880
-5920
-5960
-5980
-6010
-6030
-6070
-6080
-6100
-6110
-6140
-6150
-6160
-6170
-6170
-6170
-6170
-6160
-6150
-6150
-6130
-6130
-6110
-6110
-6090
-6060
-6060
-6030
-6010
-5990
-5960
-5940
-5910
-5890
-5860
-5830
-5800
-5760
-5720
-5690
-5640
-5620
-5580
-5550
-5520
-5490
-5470
-5440
-5410
-5390
-5370
-5360
-5340
-5350
-5330
-5330
-5340
-5330
-5330
-5340
-5350
-5360
-5370
-5410
-5430
-5440
-5480
-5490
-5520
-5540
-5570
-5600
-5630
-5660
-5690
-5720
-5760
-5790
-5830
-5850
-5890
-5910
-5930
-5970
-5990
-6010
-6040
-6060
-6070
-6090
-6110
-6110
-6120
-6140
-6130
-6140
-6150
-6140
-6140
-6130
-6120
-6120
-6100
-6110
-6080
-6070
-6040
-6020
-6000
-5950
-5940
-5910
-5880
-5850
-5800
-5770
-5740
-5700
-5690
-5630
-5610
-5580
-5540
-5520
-5490
-5460
-5450
-5420
-5410
-5370
-5370
-5350
-5340
-5340
-5310
-5330
-5320
-5320
-5340
-5330
-5340
-5350
-5360
-5390
-5400
-5420
-5440
-5450
-5490
-5500
-5530
-5560
-5580
-5630
-5640
-5690
-5710
-5760
-5800
-5820
-5860
-5870
-5910
-5920
-5930
-5970
-5990
-6010
-6040
-6040
-6070
-6060
-6080
-6090
-6090
-6110
-6100
-6100
-6110
-6090
-6100
-6070
-6070
-6070
-6050
-6050
-6010
-6000
-5970
-5930
-5910
-5860
-5860
-5820
-5780
-5760
-5710
-5700
-5650
-5610
-5590
-5540
-5530
-5500
-5470
-5450
-5420
-5410
-5370
-5360
-5350
-5330
-5340
-5320
-5310
-5320
-5300
-5320
-5310
-5320
-5340
-5340
-5360
-5380
-5400
-5430
-5440
-5480
-5490
-5510
-5550
-5560
-5600
-5620
-5650
-5680
-5720
-5760
-5780
-5820
-5840
-5880
-5910
-5930
-5970
-5980
-6010
-6030
-6050
-6070
-6090
-6090
-6110
-6110
-6120
-6120
-6120
-6130
-6110
-6120
-6100
-6090
-6090
-6070
-6060
-6040
-6020
-6000
-5960
-5950
-5910
-5880
-5860
-5810
-5800
-5750
-5730
-5700
-5650
-5630
-5590
-5560
-5540
-5510
-5500
-5460
-5440
-5410
-5390
-5370
-5360
-5350
-5340
-5330
-5330
-5330
-5320
-5340
-5330
-5350
-5360
-5370
-5380
-5380
-5410
-5420
-5450
-5470
-5490
-5530
-5530
-5590
-5590
-5620
-5660
-5680
-5730
-5750
-5780
-5820
-5850
-5890
-5910
-5940
-5970
-5980
-6010
-6020
-6040
-6070
-6060
-6100
-6090
-6100
-6100
-6100
-6120
-6100
-6100
-6100
-6090
-6090
-6060
-6040
-6030
-5980
-5970
-5940
-5930
-5910
-5880
-5860
-5810
-5780
-5750
-5710
-5690
-5670
-5660
-5630
-5600
-5580
-5540
-5510
-5470
-5440
-5430
-5390
-5380
-5350
-5340
-5320
-5310
-5310
-5300
-5310
-5330
-5330
-5350
-5340
-5360
-5390
-5380
-5410
-5420
-5440
-5470
-5470
-5510
-5510
-5540
-5570
-5590
-5630
-5650
-5690
-5720
-5740
-5800
-5800
-5850
-5880
-5910
-5940
-5960
-5990
-6010
-6030
-6060
-6080
-6090
-6100
-6100
-6120
-6110
-6120
-6120
-6110
-6110
-6090
-6090
-6080
-6060
-6050
-6030
-6020
-6000
-5970
-5960
-5910
-5910
-5860
-5830
-5810
-5770
-5740
-5710
-5680
-5640
-5600
-5580
-5540
-5520
-5500
-5470
-5450
-5420
-5400
-5390
-5360
-5360
-5330
-5320
-5330
-5310
-5320
-5310
-5320
-5320
-5320
-5340
-5350
-5360
-5380
-5400
-5410
-5430
-5450
-5480
-5510
-5540
-5560
-5590
-5620
-5650
-5690
-5710
-5750
-5790
-5800
-5850
-5860
-5900
-5930
-5950
-5990
-5990
-6040
-6040
-6060
-6070
-6070
-6100
-6090
-6110
-6110
-6100
-6110
-6090
-6080
-6080
-6070
-6060
-6030
-6020
-6000
-5980
-5970
-5930
-5910
-5880
-5850
-5830
-5800
-5780
-5730
-5710
-5680
-5630
-5600
-5580
-5530
-5510
-5470
-5460
-5430
-5410
-5400
-5370
-5370
-5340
-5330
-5330
-5310
-5330
-5310
-5310
-5320
-5310
-5320
-5330
-5330
-5350
-5350
-5390
-5400
-5420
-5460
-5470
-5510
-5530
-5560
-5590
-5610
-5650
-5680
-5710
-5740
-5770
-5830
-5840
-5860
-5910
-5910
-5950
-5960
-5980
-6000
-6020
-6040
-6050
-6060
-6080
-6080
-6110
-6090
-6120
-6100
-6090
-6090
-6070
-6060
-6050
-6030
-6020
-5980
-5980
-5950
-5920
-5890
-5850
-5820
-5780
-5730
-5700
-5670
-5650
-5610
-5600
-5570
-5540
-5540
-5500
-5490
-5460
-5430
-5410
-5380
-5370
-5350
-5340
-5340
-5320
-5330
-5330
-5320
-5320
-5310
-5330
-5340
-5340
-5360
-5360
-5380
-5390
-5410
-5440
-5450
-5490
-5500
-5540
-5570
-5580
-5620
-5650
-5670
-5720
-5730
-5790
-5810
-5840
-5880
-5900
-5930
-5950
-5970
-5990
-6000
-6030
-6040
-6050
-6070
-6080
-6080
-6080
-6080
-6090
-6080
-6070
-6070
-6050
-6060
-6030
-6030
-6000
-5990
-5970
-5940
-5920
-5890
-5860
-5830
-5790
-5780
-5730
-5710
-5680
-5640
-5620
-5570
-5550
-5520
-5480
-5470
-5430
-5420
-5390
-5370
-5370
-5330
-5330
-5310
-5300
-5300
-5290
-5300
-5300
-5280
-5310
-5290
-5330
-5330
-5340
-5360
-5370
-5390
-5410
-5440
-5460
-5470
-5510
-5530
-5570
-5600
-5620
-5660
-5700
-5730
-5760
-5780
-5830
-5840
-5880
-5900
-5920
-5950
-5970
-5990
-6000
-6010
-6030
-6040
-6060
-6060
-6070
-6080
-6060
-6070
-6060
-6050
-6050
-6020
-6020
-5990
-5980
-5970
-5940
-5920
-5900
-5860
-5840
-5800
-5790
-5760
-5720
-5690
-5650
-5620
-5590
-5540
-5520
-5480
-5460
-5430
-5410
-5390
-5360
-5350
-5310
-5300
-5290
-5270
-5270
-5260
-5250
-5270
-5250
-5260
-5260
-5280
-5290
-5300
-5340
-5350
-5370
-5390
-5420
-5440
-5450
-5480
-5500
-5500
-5550
-5580
-5600
-5640
-5670
-5700
-5730
-5760
-5800
-5810
-5850
-5860
-5890
-5910
-5930
-5970
-5990
-6020
-6050
-6060
-6080
-6070
-6080
-6060
-6050
-6070
-6050
-6060
-6040
-6030
-6020
-5990
-5980
-5960
-5930
-5910
-5880
-5860
-5830
-5800
-5770
-5730
-5720
-5670
-5640
-5620
-5580
-5550
-5510
-5490
-5460
-5430
-5420
-5380
-5360
-5350
-5320
-5320
-5290
-5290
-5280
-5270
-5280
-5270
-5280
-5280
-5270
-5290
-5280
-5310
-5310
-5340
-5360
-5360
-5390
-5420
-5430
-5470
-5480
-5520
-5540
-5580
-5610
-5630
-5670
-5700
-5740
-5780
-5790
-5850
-5860
-5900
-5920
-5930
-5960
-5970
-5980
-6000
-6000
-6030
-6020
-6030
-6020
-6020
-6040
-6020
-6030
-6030
-6010
-6010
-5990
-5960
-5960
-5920
-5910
-5880
-5860
-5830
-5800
-5790
-5740
-5720
-5690
-5660
-5630
-5590
-5560
-5520
-5490
-5470
-5430
-5400
-5370
-5360
-5350
-5320
-5310
-5280
-5260
-5270
-5230
-5240
-5240
-5230
-5240
-5240
-5240
-5250
-5250
-5270
-5250
-5310
-5310
-5340
-5360
-5380
-5410
-5430
-5450
-5500
-5530
-5570
-5590
-5630
-5670
-5690
-5740
-5750
-5790
-5820
-5830
-5860
-5870
-5900
-5920
-5940
-5960
-5970
-5990
-5990
-5990
-6030
-6000
-6030
-6020
-6010
-6010
-5980
-5970
-5960
-5940
-5930
-5900
-5890
-5880
-5840
-5840
-5810
-5800
-5780
-5750
-5720
-5690
-5670
-5620
-5600
-5550
-5510
-5470
-5440
-5410
-5390
-5360
-5360
-5310
-5300
-5290
-5280
-5280
-5270
-5270
-5260
-5260
-5260
-5250
-5250
-5260
-5250
-5270
-5260
-5290
-5310
-5330
-5350
-5370
-5400
-5420
-5450
-5470
-5490
-5530
-5560
-5590
-5620
-5650
-5690
-5710
-5740
-5770
-5790
-5830
-5850
-5870
-5900
-5920
-5940
-5960
-5960
-5980
-5990
-6000
-6000
-6000
-6010
-6000
-6010
-5980
-5990
-5980
-5960
-5960
-5930
-5920
-5900
-5860
-5860
-5830
-5800
-5780
-5740
-5730
-5670
-5650
-5620
-5580
-5570
-5520
-5490
-5470
-5430
-5410
-5390
-5360
-5340
-5310
-5320
-5270
-5270
-5260
-5230
-5230
-5210
-5220
-5220
-5210
-5230
-5210
-5230
-5240
-5250
-5270
-5270
-5310
-5330
-5350
-5390
-5380
-5420
-5440
-5480
-5520
-5540
-5580
-5600
-5630
-5670
-5690
-5740
-5760
-5780
-5830
-5830
-5870
-5880
-5910
-5920
-5920
-5960
-5950
-5970
-5980
-5990
-6000
-5980
-5990
-5970
-5970
-5960
-5950
-5950
-5940
-5920
-5910
-5880
-5870
-5840
-5810
-5800
-5760
-5740
-5690
-5670
-5640
-5600
-5570
-5530
-5500
-5470
-5430
-5420
-5390
-5350
-5330
-5300
-5290
-5270
-5260
-5250
-5230
-5220
-5220
-5200
-5190
-5190
-5190
-5190
-5210
-5230
-5220
-5250
-5250
-5260
-5280
-5290
-5330
-5340
-5380
-5430
-5440
-5480
-5490
-5520
-5560
-5580
-5620
-5630
-5680
-5710
-5740
-5770
-5790
-5820
-5840
-5860
-5900
-5890
-5930
-5930
-5940
-5960
-5960
-5980
-5970
-5960
-5970
-5940
-5950
-5930
-5930
-5940
-5910
-5920
-5890
-5870
-5850
-5810
-5790
-5760
-5740
-5710
-5680
-5660
-5610
-5580
-5570
-5510
-5500
-5450
-5420
-5400
-5370
-5340
-5320
-5300
-5290
-5250
-5240
-5230
-5210
-5210
-5190
-5200
-5190
-5190
-5190
-5190
-5210
-5210
-5230
-5230
-5240
-5280
-5280
-5320
-5340
-5360
-5390
-5410
-5420
-5450
-5470
-5510
-5520
-5570
-5610
-5630
-5670
-5680
-5730
-5760
-5760
-5800
-5820
-5860
-5870
-5900
-5910
-5920
-5930
-5940
-5950
-5960
-5960
-5960
-5960
-5950
-5950
-5930
-5930
-5910
-5900
-5880
-5860
-5840
-5810
-5800
-5760
-5740
-5720
-5670
-5660
-5620
-5590
-5560
-5520
-5500
-5460
-5430
-5410
-5370
-5370
-5330
-5310
-5290
-5270
-5270
-5250
-5240
-5230
-5210
-5220
-5200
-5180
-5190
-5190
-5180
-5190
-5200
-5210
-5210
-5240
-5230
-5250
-5280
-5290
-5330
-5350
-5380
-5410
-5450
-5480
-5490
-5520
-5550
-5570
-5630
-5640
-5690
-5710
-5730
-5770
-5780
-5820
-5830
-5860
-5890
-5870
-5910
-5930
-5920
-5930
-5920
-5930
-5930
-5930
-5930
-5920
-5910
-5890
-5870
-5870
-5830
-5840
-5830
-5790
-5790
-5770
-5740
-5720
-5670
-5660
-5610
-5600
-5560
-5530
-5510
-5470
-5450
-5410
-5380
-5360
-5310
-5300
-5260
-5250
-5240
-5220
-5220
-5200
-5190
-5180
-5170
-5180
-5160
-5170
-5170
-5180
-5200
-5200
-5220
-5230
-5240
-5270
-5280
-5310
-5330
-5340
-5390
-5410
-5430
-5460
-5490
-5520
-5540
-5570
-5600
-5640
-5670
-5700
-5730
-5760
-5780
-5810
-5820
-5850
-5870
-5880
-5900
-5890
-5920
-5920
-5930
-5940
-5920
-5930
-5920
-5910
-5910
-5890
-5890
-5850
-5850
-5840
-5800
-5790
-5760
-5740
-5710
-5690
-5670
-5620
-5600
-5570
-5540
-5510
-5470
-5440
-5400
-5380
-5370
-5310
-5300
-5280
-5240
-5240
-5210
-5190
-5190
-5180
-5170
-5150
-5160
-5150
-5150
-5140
-5160
-5170
-5170
-5180
-5210
-5200
-5230
-5250
-5260
-5290
-5290
-5340
-5350
-5380
-5410
-5430
-5470
-5490
-5530
-5570
-5590
-5630
-5640
-5680
-5700
-5720
-5760
-5760
-5790
-5800
-5830
-5840
-5850
-5870
-5880
-5880
-5890
-5890
-5910
-5910
-5900
-5910
-5880
-5890
-5860
-5840
-5820
-5790
-5790
-5760
-5750
-5730
-5690
-5680
-5640
-5610
-5590
-5540
-5520
-5480
-5450
-5420
-5380
-5380
-5340
-5320
-5300
-5260
-5250
-5220
-5210
-5190
-5160
-5150
-5130
-5130
-5120
-5110
-5110
-5110
-5120
-5130
-5140
-5170
-5160
-5200
-5220
-5230
-5260
-5260
-5290
-5310
-5340
-5370
-5400
-5450
-5470
-5490
-5530
-5540
-5590
-5620
-5640
-5690
-5710
-5750
-5770
-5790
-5810
-5820
-5840
-5840
-5860
-5870
-5870
-5890
-5890
-5900
-5890
-5890
-5890
-5890
-5880
-5860
-5840
-5830
-5810
-5780
-5770
-5730
-5720
-5690
-5680
-5660
-5620
-5610
-5560
-5530
-5510
-5460
-5440
-5400
-5380
-5350
-5310
-5290
-5250
-5240
-5220
-5190
-5180
-5150
-5140
-5130
-5110
-5110
-5080
-5090
-5080
-5090
-5100
-5110
-5140
-5140
-5140
-5180
-5170
-5200
-5220
-5250
-5290
-5310
-5350
-5370
-5400
-5420
-5450
-5490
-5510
-5530
-5570
-5590
-5620
-5650
-5680
-5720
-5740
-5760
-5790
-5800
-5830
-5830
-5850
-5840
-5870
-5870
-5880
-5880
-5880
-5870
-5870
-5850
-5850
-5830
-5830
-5810
-5800
-5790
-5750
-5740
-5710
-5690
-5670
-5640
-5610
-5590
-5560
-5520
-5480
-5450
-5410
-5370
-5360
-5330
-5320
-5280
-5260
-5240
-5220
-5210
-5180
-5160
-5150
-5130
-5120
-5110
-5120
-5090
-5100
-5110
-5110
-5110
-5120
-5130
-5150
-5150
-5180
-5190
-5200
-5240
-5250
-5290
-5300
-5330
-5360
-5390
-5430
-5460
-5480
-5520
-5540
-5580
-5620
-5640
-5690
-5710
-5750
-5760
-5780
-5790
-5790
-5820
-5830
-5850
-5860
-5860
-5880
-5880
-5860
-5870
-5860
-5860
-5840
-5820
-5830
-5790
-5790
-5760
-5740
-5730
-5680
-5690
-5640
-5620
-5590
-5550
-5520
-5490
-5450
-5430
-5390
-5360
-5320
-5310
-5270
-5240
-5220
-5180
-5170
-5150
-5130
-5140
-5110
-5110
-5110
-5080
-5090
-5070
-5090
-5090
-5110
-5120
-5120
-5140
-5130
-5140
-5160
-5170
-5190
-5200
-5250
-5260
-5290
-5330
-5350
-5390
-5410
-5430
-5470
-5490
-5530
-5560
-5590
-5630
-5660
-5680
-5710
-5720
-5760
-5770
-5800
-5820
-5830
-5860
-5850
-5870
-5870
-5860
-5890
-5870
-5860
-5850
-5840
-5830
-5800
-5790
-5770
-5740
-5740
-5700
-5690
-5660
-5620
-5610
-5570
-5540
-5520
-5480
-5450
-5400
-5380
-5340
-5310
-5290
-5250
-5250
-5230
-5200
-5170
-5140
-5130
-5110
-5090
-5090
-5080
-5090
-5070
-5080
-5080
-5080
-5110
-5090
-5110
-5120
-5130
-5160
-5170
-5180
-5220
-5220
-5250
-5260
-5290
-5320
-5340
-5380
-5390
-5440
-5470
-5490
-5540
-5550
-5590
-5610
-5640
-5660
-5680
-5700
-5730
-5740
-5770
-5760
-5790
-5800
-5810
-5830
-5820
-5850
-5850
-5850
-5850
-5830
-5830
-5800
-5790
-5790
-5740
-5740
-5710
-5680
-5680
-5630
-5620
-5590
-5560
-5540
-5500
-5470
-5430
-5410
-5370
-5330
-5310
-5270
-5260
-5230
-5190
-5190
-5150
-5140
-5110
-5090
-5080
-5070
-5060
-5060
-5040
-5050
-5050
-5040
-5060
-5070
-5090
-5090
-5110
-5130
-5150
-5170
-5180
-5220
-5240
-5260
-5290
-5290
-5340
-5350
-5380
-5430
-5440
-5490
-5510
-5550
-5580
-5600
-5640
-5660
-5680
-5710
-5720
-5740
-5760
-5780
-5800
-5800
-5830
-5820
-5840
-5840
-5820
-5830
-5820
-5820
-5810
-5790
-5790
-5760
-5750
-5730
-5700
-5690
-5660
-5640
-5620
-5580
-5560
-5510
-5490
-5460
-5420
-5410
-5350
-5340
-5300
-5280
-5250
-5220
-5200
-5190
-5150
-5150
-5120
-5110
-5100
-5080
-5080
-5060
-5060
-5070
-5050
-5080
-5060
-5090
-5090
-5100
-5120
-5130
-5160
-5160
-5190
-5210
-5220
-5260
-5290
-5300
-5340
-5340
-5390
-5400
-5440
-5480
-5490
-5550
-5560
-5610
-5640
-5660
-5700
-5720
-5740
-5770
-5770
-5790
-5790
-5810
-5820
-5820
-5850
-5830
-5830
-5820
-5800
-5810
-5780
-5780
-5780
-5750
-5760
-5720
-5710
-5690
-5660
-5640
-5590
-5570
-5540
-5510
-5480
-5430
-5400
-5370
-5340
-5310
-5270
-5260
-5230
-5210
-5190
-5160
-5150
-5120
-5100
-5110
-5070
-5070
-5060
-5050
-5050
-5040
-5050
-5040
-5060
-5060
-5070
-5090
-5080
-5110
-5130
-5130
-5170
-5170
-5210
-5220
-5250
-5290
-5310
-5360
-5380
-5410
-5450
-5460
-5510
-5530
-5560
-5590
-5620
-5660
-5670
-5680
-5710
-5710
-5730
-5750
-5760
-5780
-5780
-5790
-5800
-5780
-5790
-5780
-5780
-5760
-5750
-5750
-5720
-5710
-5690
-5660
-5640
-5600
-5600
-5550
-5530
-5510
-5470
-5460
-5420
-5390
-5350
-5320
-5320
-5270
-5260
-5230
-5200
-5180
-5130
-5120
-5100
-5080
-5080
-5050
-5070
-5050
-5050
-5050
-5040
-5050
-5040
-5040
-5050
-5050
-5060
-5080
-5080
-5110
-5110
-5140
-5140
-5170
-5190
-5210
-5240
-5270
-5280
-5330
-5340
-5400
-5430
-5470
-5490
-5520
-5550
-5570
-5590
-5620
-5640
-5680
-5690
-5710
-5740
-5750
-5780
-5780
-5790
-5790
-5790
-5790
-5780
-5790
-5790
-5770
-5760
-5740
-5740
-5710
-5690
-5680
-5640
-5640
-5600
-5580
-5560
-5510
-5500
-5460
-5420
-5400
-5350
-5350
-5310
-5270
-5260
-5230
-5220
-5170
-5140
-5130
-5100
-5090
-5060
-5050
-5030
-5010
-5020
-5010
-5010
-5020
-5010
-5020
-5010
-5030
-5030
-5040
-5060
-5080
-5090
-5120
-5130
-5150
-5180
-5190
-5230
-5250
-5290
-5310
-5350
-5380
-5400
-5450
-5460
-5500
-5540
-5550
-5590
-5600
-5630
-5650
-5660
-5700
-5700
-5730
-5740
-5740
-5760
-5740
-5750
-5740
-5740
-5730
-5720
-5740
-5720
-5720
-5720
-5690
-5680
-5660
-5630
-5620
-5580
-5570
-5520
-5510
-5490
-5440
-5430
-5390
-5360
-5340
-5290
-5260
-5210
-5190
-5160
-5120
-5100
-5060
-5050
-5020
-5010
-5010
-5000
-4990
-5000
-4990
-5000
-4980
-4990
-4980
-4990
-4990
-5000
-5020
-5040
-5030
-5070
-5070
-5110
-5130
-5160
-5190
-5210
-5270
-5270
-5290
-5330
-5340
-5390
-5420
-5460
-5490
-5520
-5550
-5590
-5600
-5640
-5630
-5670
-5680
-5680
-5710
-5710
-5740
-5730
-5740
-5740
-5750
-5760
-5740
-5750
-5730
-5720
-5710
-5690
-5680
-5660
-5630
-5620
-5590
-5570
-5540
-5500
-5490
-5430
-5420
-5390
-5360
-5350
-5300
-5280
-5230
-5210
-5180
-5130
-5120
-5080
-5060
-5050
-5010
-5010
-4990
-4970
-4970
-4940
-4960
-4950
-4960
-4970
-4960
-4990
-4980
-5000
-5010
-5030
-5050
-5060
-5080
-5100
-5110
-5140
-5160
-5180
-5220
-5240
-5280
-5300
-5330
-5370
-5390
-5440
-5450
-5480
-5510
-5520
-5540
-5560
-5590
-5610
-5630
-5660
-5660
-5680
-5690
-5690
-5700
-5700
-5710
-5720
-5710
-5710
-5700
-5690
-5680
-5650
-5640
-5610
-5590
-5570
-5550
-5530
-5530
-5510
-5490
-5480
-5430
-5400
-5360
-5330
-5290
-5260
-5210
-5200
-5160
-5140
-5110
-5080
-5060
-5040
-5010
-5010
-4980
-4970
-4960
-4950
-4950
-4940
-4950
-4930
-4950
-4950
-4940
-4970
-4970
-4980
-4990
-5000
-5040
-5040
-5080
-5110
-5120
-5160
-5160
-5200
-5220
-5250
-5290
-5310
-5380
-5400
-5440
-5460
-5480
-5520
-5550
-5570
-5600
-5610
-5640
-5640
-5650
-5670
-5660
-5690
-5690
-5690
-5700
-5690
-5690
-5680
-5680
-5680
-5650
-5660
-5630
-5610
-5590
-5560
-5540
-5510
-5480
-5470
-5440
-5420
-5370
-5360
-5330
-5280
-5260
-5230
-5190
-5170
-5130
-5110
-5090
-5050
-5050
-5010
-5010
-4970
-4970
-4960
-4940
-4950
-4930
-4950
-4940
-4930
-4960
-4930
-4960
-4950
-4960
-4980
-4980
-5020
-5030
-5040
-5080
-5090
-5130
-5150
-5170
-5210
-5220
-5270
-5290
-5330
-5360
-5390
-5430
-5440
-5470
-5510
-5510
-5560
-5560
-5590
-5610
-5610
-5650
-5640
-5650
-5670
-5660
-5670
-5660
-5680
-5660
-5650
-5650
-5630
-5620
-5610
-5600
-5610
-5560
-5560
-5510
-5480
-5470
-5430
-5420
-5400
-5360
-5340
-5280
-5270
-5210
-5180
-5150
-5110
-5090
-5070
-5030
-5020
-5000
-4990
-4960
-4940
-4930
-4900
-4900
-4890
-4880
-4900
-4870
-4900
-4890
-4910
-4920
-4920
-4950
-4950
-4970
-4990
-5000
-5040
-5040
-5060
-5090
-5110
-5160
-5190
-5220
-5250
-5270
-5310
-5340
-5370
-5400
-5420
-5450
-5470
-5500
-5510
-5540
-5570
-5580
-5600
-5620
-5620
-5650
-5640
-5650
-5660
-5640
-5670
-5650
-5660
-5640
-5630
-5630
-5600
-5600
-5560
-5550
-5530
-5500
-5480
-5450
-5410
-5390
-5350
-5330
-5290
-5260
-5240
-5200
-5170
-5150
-5120
-5100
-5060
-5050
-5020
-5000
-4970
-4950
-4940
-4910
-4910
-4890
-4880
-4880
-4870
-4880
-4880
-4880
-4900
-4890
-4910
-4930
-4930
-4970
-4960
-5000
-5010
-5030
-5070
-5090
-5110
-5140
-5170
-5210
-5220
-5260
-5290
-5310
-5340
-5360
-5390
-5420
-5440
-5490
-5480
-5540
-5550
-5560
-5580
-5580
-5600
-5610
-5610
-5650
-5610
-5640
-5620
-5610
-5610
-5590
-5590
-5570
-5550
-5550
-5510
-5510
-5480
-5470
-5450
-5430
-5410
-5370
-5340
-5300
-5260
-5250
-5210
-5180
-5140
-5120
-5090
-5060
-5040
-5020
-4990
-4980
-4960
-4950
-4930
-4910
-4900
-4890
-4870
-4860
-4850
-4860
-4840
-4870
-4860
-4880
-4890
-4890
-4920
-4930
-4960
-4990
-4990
-5020
-5040
-5070
-5110
-5110
-5160
-5170
-5210
-5230
-5270
-5300
-5320
-5360
-5400
-5410
-5450
-5450
-5490
-5510
-5520
-5550
-5550
-5570
-5590
-5580
-5610
-5590
-5600
-5600
-5610
-5610
-5590
-5600
-5580
-5560
-5560
-5530
-5510
-5510
-5470
-5460
-5430
-5410
-5370
-5350
-5320
-5280
-5260
-5230
-5190
-5160
-5120
-5110
-5070
-5050
-5030
-4990
-4970
-4950
-4930
-4910
-4880
-4870
-4850
-4850
-4840
-4830
-4850
-4830
-4840
-4850
-4840
-4860
-4860
-4880
-4900
-4900
-4930
-4940
-4950
-4980
-5010
-5020
-5040
-5080
-5100
-5110
-5170
-5180
-5230
-5250
-5290
-5320
-5340
-5380
-5400
-5430
-5470
-5470
-5510
-5530
-5540
-5570
-5570
-5590
-5600
-5590
-5600
-5600
-5600
-5600
-5590
-5590
-5570
-5570
-5550
-5520
-5520
-5470
-5480
-5430
-5420
-5390
-5360
-5340
-5300
-5280
-5230
-5200
-5180
-5140
-5110
-5080
-5050
-5040
-5000
-4990
-4970
-4920
-4930
-4890
-4880
-4860
-4840
-4840
-4830
-4830
-4830
-4810
-4830
-4820
-4840
-4840
-4840
-4880
-4870
-4910
-4930
-4950
-4990
-4980
-5020
-5030
-5050
-5090
-5100
-5130
-5160
-5190
-5210
-5260
-5280
-5310
-5340
-5380
-5390
-5420
-5440
-5470
-5490
-5500
-5530
-5540
-5550
-5570
-5570
-5580
-5560
-5570
-5560
-5550
-5560
-5530
-5540
-5530
-5500
-5510
-5480
-5460
-5450
-5420
-5410
-5370
-5350
-5310
-5280
-5270
-5220
-5200
-5160
-5120
-5090
-5050
-5030
-5000
-4970
-4950
-4930
-4920
-4890
-4880
-4860
-4850
-4850
-4820
-4820
-4810
-4800
-4810
-4810
-4820
-4840
-4840
-4850
-4850
-4870
-4890
-4900
-4930
-4920
-4950
-4980
-4990
-5030
-5050
-5090
-5110
-5140
-5180
-5200
-5230
-5260
-5300
-5340
-5380
-5410
-5430
-5450
-5480
-5480
-5500
-5510
-5500
-5530
-5530
-5550
-5550
-5560
-5580
-5560
-5570
-5550
-5540
-5540
-5510
-5510
-5480
-5460
-5450
-5420
-5410
-5370
-5340
-5320
-5290
-5270
-5230
-5200
-5170
-5130
-5110
-5070
-5040
-5010
-4980
-4960
-4930
-4910
-4890
-4860
-4860
-4820
-4820
-4800
-4800
-4790
-4780
-4780
-4770
-4780
-4770
-4770
-4800
-4800
-4810
-4840
-4840
-4870
-4880
-4910
-4930
-4960
-5000
-5010
-5040
-5070
-5100
-5140
-5160
-5190
-5250
-5240
-5300
-5320
-5350
-5400
-5400
-5460
-5450
-5470
-5490
-5490
-5530
-5510
-5530
-5540
-5530
-5550
-5530
-5530
-5520
-5510
-5510
-5490
-5480
-5470
-5440
-5440
-5400
-5400
-5370
-5340
-5320
-5290
-5280
-5240
-5220
-5190
-5160
-5120
-5090
-5050
-5030
-4990
-4960
-4940
-4910
-4900
-4860
-4850
-4820
-4810
-4800
-4780
-4780
-4770
-4780
-4770
-4770
-4780
-4770
-4790
-4790
-4800
-4820
-4820
-4840
-4850
-4860
-4900
-4890
-4940
-4970
-4990
-5030
-5050
-5080
-5110
-5140
-5180
-5200
-5250
-5280
-5310
-5330
-5350
-5370
-5400
-5420
-5440
-5450
-5480
-5480
-5500
-5510
-5510
-5520
-5510
-5510
-5520
-5490
-5500
-5500
-5480
-5480
-5460
-5450
-5420
-5400
-5380
-5340
-5320
-5290
-5270
-5240
-5200
-5190
-5150
-5130
-5090
-5050
-5020
-4990
-4960
-4940
-4900
-4890
-4860
-4840
-4830
-4800
-4780
-4760
-4760
-4740
-4730
-4730
-4720
-4730
-4750
-4740
-4760
-4760
-4770
-4780
-4770
-4790
-4800
-4840
-4850
-4880
-4920
-4930
-4970
-4990
-5020
-5050
-5090
-5130
-5160
-5190
-5220
-5240
-5280
-5310
-5330
-5350
-5360
-5400
-5400
-5420
-5450
-5450
-5490
-5480
-5490
-5510
-5500
-5520
-5500
-5490
-5490
-5460
-5460
-5430
-5430
-5410
-5400
-5380
-5360
-5340
-5310
-5290
-5260
-5230
-5200
-5160
-5140
-5100
-5060
-5040
-4990
-4970
-4950
-4910
-4900
-4850
-4840
-4830
-4800
-4790
-4770
-4770
-4750
-4740
-4730
-4720
-4730
-4730
-4710
-4740
-4740
-4750
-4770
-4760
-4780
-4790
-4820
-4830
-4860
-4880
-4900
-4940
-4960
-4980
-5020
-5040
-5080
-5110
-5130
-5180
-5190
-5240
-5260
-5290
-5310
-5330
-5350
-5370
-5390
-5410
-5420
-5440
-5450
-5460
-5460
-5460
-5470
-5460
-5460
-5470
-5430
-5440
-5420
-5410
-5400
-5370
-5360
-5330
-5300
-5290
-5260
-5240
-5210
-5190
-5160
-5130
-5120
-5060
-5050
-5000
-4960
-4960
-4890
-4900
-4870
-4850
-4840
-4810
-4800
-4770
-4760
-4750
-4720
-4730
-4720
-4700
-4710
-4700
-4720
-4700
-4710
-4720
-4720
-4750
-4750
-4770
-4800
-4800
-4840
-4850
-4880
-4910
-4930
-4960
-4980
-5020
-5060
-5080
-5120
-5150
-5180
-5210
-5240
-5260
-5280
-5310
-5330
-5340
-5370
-5360
-5390
-5410
-5400
-5420
-5420
-5430
-5430
-5410
-5430
-5410
-5420
-5410
-5410
-5400
-5400
-5390
-5360
-5340
-5310
-5280
-5260
-5230
-5200
-5180
-5130
-5120
-5070
-5050
-5020
-4990
-4950
-4920
-4890
-4860
-4840
-4820
-4800
-4780
-4760
-4730
-4730
-4720
-4700
-4710
-4690
-4710
-4690
-4700
-4690
-4700
-4720
-4710
-4730
-4730
-4740
-4770
-4770
-4800
-4820
-4840
-4870
-4890
-4920
-4950
-4970
-5010
-5020
-5060
-5090
-5120
-5160
-5180
-5220
-5240
-5260
-5300
-5300
-5330
-5360
-5360
-5380
-5390
-5420
-5400
-5420
-5420
-5420
-5420
-5410
-5410
-5400
-5380
-5390
-5350
-5360
-5340
-5320
-5310
-5280
-5280
-5230
-5220
-5180
-5150
-5120
-5100
-5050
-5050
-4990
-4980
-4930
-4900
-4880
-4830
-4820
-4800
-4770
-4750
-4730
-4720
-4710
-4690
-4680
-4660
-4670
-4660
-4650
-4660
-4660
-4670
-4670
-4690
-4700
-4700
-4730
-4740
-4760
-4780
-4800
-4820
-4850
-4880
-4910
-4930
-4980
-4990
-5010
-5050
-5080
-5110
-5130
-5170
-5200
-5220
-5260
-5260
-5300
-5310
-5330
-5340
-5350
-5380
-5390
-5390
-5410
-5390
-5400
-5400
-5390
-5400
-5380
-5380
-5370
-5350
-5350
-5330
-5310
-5290
-5260
-5250
-5210
-5180
-5150
-5110
-5090
-5050
-5030
-4990
-4960
-4940
-4900
-4890
-4840
-4820
-4790
-4750
-4730
-4710
-4700
-4680
-4680
-4680
-4660
-4670
-4650
-4650
-4660
-4650
-4670
-4660
-4660
-4670
-4650
-4690
-4690
-4690
-4730
-4740
-4770
-4790
-4800
-4840
-4850
-4900
-4920
-4970
-5000
-5010
-5070
-5090
-5110
-5160
-5170
-5190
-5210
-5240
-5270
-5270
-5310
-5320
-5320
-5350
-5360
-5380
-5380
-5390
-5400
-5400
-5390
-5390
-5380
-5380
-5350
-5360
-5330
-5330
-5300
-5270
-5260
-5220
-5220
-5180
-5140
-5110
-5070
-5040
-5020
-4980
-4980
-4920
-4920
-4870
-4840
-4830
-4780
-4760
-4750
-4710
-4700
-4680
-4690
-4660
-4650
-4650
-4640
-4640
-4640
-4640
-4650
-4640
-4660
-4650
-4680
-4680
-4700
-4720
-4730
-4760
-4790
-4800
-4840
-4840
-4880
-4910
-4920
-4960
-4980
-5020
-5050
-5070
-5120
-5140
-5170
-5190
-5210
-5250
-5240
-5270
-5290
-5300
-5310
-5320
-5340
-5340
-5350
-5370
-5360
-5370
-5360
-5340
-5350
-5310
-5340
-5300
-5310
-5290
-5260
-5260
-5220
-5190
-5180
-5130
-5130
-5080
-5060
-5030
-5000
-4970
-4920
-4900
-4870
-4830
-4820
-4780
-4760
-4740
-4720
-4710
-4670
-4660
-4630
-4630
-4620
-4610
-4620
-4620
-4610
-4620
-4600
-4620
-4620
-4630
-4650
-4650
-4670
-4690
-4690
-4720
-4740
-4770
-4800
-4830
-4870
-4890
-4930
-4960
-5000
-5020
-5050
-5100
-5100
-5140
-5170
-5180
-5210
-5230
-5240
-5260
-5280
-5300
-5300
-5320
-5340
-5330
-5360
-5340
-5340
-5340
-5320
-5330
-5310
-5310
-5310
-5280
-5280
-5260
-5260
-5240
-5220
-5200
-5160
-5140
-5110
-5080
-5050
-5010
-4990
-4940
-4910
-4890
-4840
-4830
-4790
-4770
-4760
-4720
-4730
-4710
-4680
-4670
-4650
-4640
-4620
-4600
-4610
-4590
-4610
-4590
-4590
-4600
-4600
-4620
-4610
-4630
-4650
-4660
-4690
-4700
-4720
-4750
-4760
-4800
-4810
-4860
-4880
-4900
-4930
-4960
-5010
-5050
-5100
-5160
-5170
-5220
-5230
-5250
-5270
-5260
-5300
-5290
-5310
-5320
-5330
-5340
-5340
-5350
-5350
-5350
-5350
-5330
-5320
-5320
-5290
-5290
-5270
-5260
-5240
-5220
-5200
-5170
-5150
-5110
-5100
-5070
-5030
-5010
-4980
-4950
-4930
-4880
-4850
-4830
-4790
-4780
-4730
-4730
-4690
-4670
-4670
-4640
-4630
-4620
-4610
-4610
-4590
-4600
-4590
-4580
-4610
-4590
-4630
-4620
-4630
-4660
-4660
-4690
-4710
-4710
-4750
-4770
-4800
-4820
-4840
-4870
-4900
-4940
-4960
-4990
-5020
-5040
-5080
-5100
-5130
-5160
-5180
-5210
-5220
-5240
-5260
-5270
-5290
-5290
-5310
-5310
-5310
-5320
-5310
-5310
-5320
-5300
-5310
-5280
-5270
-5260
-5230
-5240
-5200
-5210
-5170
-5150
-5140
-5100
-5090
-5050
-5030
-5000
-4980
-4930
-4910
-4870
-4850
-4800
-4790
-4750
-4720
-4710
-4670
-4670
-4640
-4630
-4610
-4580
-4600
-4570
-4570
-4580
-4570
-4580
-4580
-4590
-4590
-4610
-4630
-4620
-4660
-4660
-4680
-4710
-4710
-4750
-4770
-4800
-4830
-4850
-4890
-4920
-4940
-4970
-4990
-5040
-5040
-5090
-5110
-5140
-5170
-5180
-5210
-5220
-5230
-5250
-5250
-5280
-5300
-5300
-5330
-5320
-5330
-5330
-5300
-5320
-5280
-5270
-5260
-5240
-5220
-5210
-5200
-5190
-5170
-5150
-5130
-5110
-5070
-5040
-5020
-4970
-4960
-4920
-4890
-4870
-4820
-4810
-4770
-4750
-4730
-4700
-4670
-4660
-4640
-4630
-4610
-4590
-4580
-4570
-4570
-4560
-4580
-4560
-4590
-4580
-4580
-4590
-4590
-4600
-4640
-4640
-4680
-4700
-4720
-4750
-4760
-4810
-4810
-4850
-4880
-4900
-4930
-4960
-4990
-5030
-5040
-5090
-5100
-5130
-5140
-5160
-5200
-5200
-5220
-5240
-5250
-5270
-5280
-5290
-5300
-5300
-5290
-5290
-5300
-5290
-5290
-5280
-5260
-5250
-5230
-5220
-5200
-5160
-5160
-5130
-5110
-5080
-5050
-5030
-4990
-4960
-4940
-4900
-4880
-4840
-4810
-4780
-4750
-4730
-4700
-4680
-4660
-4630
-4620
-4590
-4590
-4570
-4560
-4570
-4550
-4560
-4550
-4560
-4560
-4550
-4570
-4570
-4590
-4590
-4610
-4640
-4650
-4680
-4710
-4710
-4750
-4780
-4800
-4830
-4860
-4900
-4910
-4950
-4980
-5000
-5040
-5060
-5090
-5120
-5140
-5160
-5180
-5210
-5220
-5230
-5250
-5270
-5270
-5290
-5280
-5300
-5280
-5290
-5290
-5270
-5270
-5250
-5240
-5230
-5200
-5200
-5180
-5160
-5150
-5130
-5100
-5050
-5040
-5000
-4970
-4950
-4920
-4910
-4880
-4850
-4820
-4780
-4760
-4720
-4690
-4670
-4640
-4630
-4610
-4590
-4580
-4560
-4550
-4540
-4540
-4530
-4530
-4540
-4530
-4550
-4560
-4570
-4600
-4600
-4620
-4650
-4640
-4670
-4670
-4710
-4730
-4760
-4790
-4810
-4850
-4890
-4910
-4950
-4960
-4990
-5010
-5030
-5090
-5120
-5170
-5200
-5240
-5260
-5250
-5280
-5260
-5290
-5300
-5290
-5320
-5310
-5310
-5320
-5300
-5310
-5280
-5270
-5280
-5250
-5250
-5220
-5200
-5180
-5150
-5130
-5090
-5060
-5050
-5000
-4990
-4940
-4920
-4890
-4850
-4820
-4770
-4750
-4730
-4690
-4690
-4660
-4630
-4620
-4590
-4590
-4550
-4570
-4560
-4550
-4560
-4540
-4550
-4540
-4540
-4550
-4560
-4580
-4580
-4610
-4620
-4640
-4660
-4690
-4710
-4740
-4760
-4780
-4810
-4840
-4860
-4890
-4920
-4950
-4970
-5010
-5030
-5070
-5080
-5110
-5140
-5160
-5190
-5190
-5220
-5230
-5240
-5250
-5260
-5280
-5280
-5280
-5290
-5270
-5270
-5270
-5250
-5250
-5230
-5210
-5200
-5180
-5170
-5140
-5130
-5100
-5070
-5060
-5020
-4990
-4960
-4920
-4900
-4860
-4840
-4800
-4780
-4760
-4720
-4700
-4680
-4650
-4630
-4600
-4600
-4580
-4570
-4550
-4530
-4540
-4520
-4530
-4520
-4520
-4530
-4540
-4530
-4550
-4560
-4590
-4580
-4610
-4630
-4640
-4670
-4690
-4730
-4740
-4770
-4790
-4820
-4850
-4890
-4900
-4960
-4970
-5010
-5040
-5060
-5100
-5100
-5140
-5160
-5160
-5200
-5210
-5230
-5250
-5270
-5270
-5260
-5270
-5270
-5260
-5270
-5240
-5240
-5230
-5210
-5220
-5190
-5180
-5140
-5110
-5090
-5060
-5040
-5030
-4990
-5000
-4950
-4940
-4910
-4870
-4830
-4790
-4780
-4740
-4730
-4700
-4680
-4660
-4630
-4600
-4590
-4560
-4550
-4530
-4530
-4540
-4520
-4520
-4520
-4520
-4510
-4530
-4540
-4530
-4560
-4580
-4590
-4630
-4620
-4660
-4670
-4690
-4730
-4720
-4770
-4770
-4810
-4840
-4870
-4920
-4940
-4990
-5020
-5040
-5080
-5100
-5130
-5140
-5160
-5180
-5190
-5200
-5240
-5240
-5260
-5250
-5270
-5260
-5250
-5260
-5230
-5240
-5230
-5210
-5210
-5190
-5190
-5150
-5140
-5140
-5100
-5080
-5060
-5030
-5010
-4970
-4960
-4910
-4890
-4850
-4810
-4790
-4760
-4710
-4710
-4660
-4650
-4630
-4610
-4600
-4570
-4570
-4540
-4540
-4530
-4510
-4520
-4510
-4510
-4510
-4510
-4520
-4530
-4530
-4550
-4550
-4570
-4590
-4610
-4620
-4640
-4680
-4700
-4730
-4760
-4790
-4830
-4850
-4890
-4910
-4940
-4970
-5000
-5030
-5060
-5080
-5100
-5120
-5160
-5170
-5190
-5210
-5210
-5220
-5220
-5230
-5240
-5230
-5250
-5250
-5240
-5240
-5220
-5230
-5210
-5180
-5180
-5140
-5130
-5090
-5080
-5050
-5040
-5010
-4980
-4940
-4930
-4900
-4880
-4830
-4820
-4790
-4760
-4740
-4690
-4660
-4630
-4610
-4590
-4570
-4560
-4550
-4540
-4540
-4510
-4520
-4500
-4490
-4510
-4490
-4510
-4510
-4520
-4530
-4540
-4560
-4580
-4580
-4610
-4620
-4660
-4660
-4690
-4720
-4740
-4780
-4800
-4820
-4860
-4880
-4930
-4950
-5000
-5040
-5050
-5090
-5100
-5120
-5130
-5150
-5180
-5170
-5210
-5220
-5210
-5230
-5220
-5230
-5220
-5210
-5230
-5220
-5210
-5210
-5190
-5190
-5170
-5150
-5130
-5100
-5090
-5050
-5040
-5000
-4960
-4950
-4890
-4880
-4840
-4820
-4790
-4750
-4730
-4700
-4680
-4660
-4620
-4620
-4580
-4560
-4540
-4520
-4520
-4490
-4490
-4490
-4480
-4490
-4470
-4500
-4490
-4500
-4510
-4510
-4520
-4540
-4550
-4580
-4580
-4620
-4660
-4660
-4710
-4730
-4760
-4790
-4800
-4860
-4860
-4900
-4920
-4940
-4990
-5000
-5050
-5060
-5090
-5130
-5150
-5170
-5180
-5190
-5210
-5210
-5240
-5230
-5240
-5240
-5230
-5250
-5220
-5210
-5210
-5190
-5180
-5160
-5150
-5130
-5110
-5100
-5060
-5040
-5020
-4980
-4960
-4940
-4910
-4890
-4850
-4840
-4790
-4770
-4730
-4700
-4670
-4640
-4620
-4600
-4580
-4580
-4540
-4540
-4510
-4500
-4500
-4480
-4470
-4470
-4480
-4490
-4480
-4490
-4490
-4500
-4520
-4520
-4540
-4560
-4580
-4610
-4630
-4660
-4690
-4710
-4740
-4760
-4800
-4830
-4860
-4890
-4930
-4970
-4990
-5020
-5050
-5060
-5100
-5100
-5140
-5150
-5160
-5180
-5190
-5200
-5210
-5220
-5230
-5210
-5230
-5220
-5210
-5210
-5190
-5200
-5160
-5160
-5150
-5130
-5130
-5090
-5070
-5060
-5020
-5010
-4960
-4930
-4900
-4860
-4840
-4800
-4770
-4730
-4700
-4680
-4630
-4630
-4590
-4580
-4570
-4540
-4540
-4530
-4510
-4510
-4490
-4500
-4490
-4490
-4490
-4490
-4500
-4500
-4500
-4510
-4510
-4540
-4550
-4560
-4600
-4600
-4640
-4640
-4660
-4710
-4710
-4750
-4770
-4810
-4840
-4860
-4900
-4920
-4960
-4990
-5020
-5060
-5080
-5090
-5130
-5130
-5140
-5160
-5170
-5190
-5190
-5210
-5200
-5190
-5190
-5180
-5180
-5180
-5180
-5180
-5160
-5180
-5130
-5130
-5100
-5060
-5060
-5030
-5000
-4970
-4940
-4900
-4860
-4840
-4810
-4780
-4760
-4740
-4740
-4720
-4680
-4670
-4630
-4610
-4580
-4550
-4540
-4520
-4510
-4490
-4470
-4470
-4460
-4470
-4460
-4470
-4480
-4480
-4490
-4490
-4510
-4540
-4540
-4570
-4570
-4600
-4630
-4650
-4680
-4710
-4730
-4760
-4780
-4820
-4840
-4870
-4920
-4940
-4980
-4990
-5020
-5060
-5070
-5100
-5110
-5140
-5160
-5160
-5190
-5180
-5200
-5200
-5210
-5220
-5200
-5220
-5200
-5200
-5190
-5170
-5180
-5150
-5130
-5120
-5090
-5070
-5050
-5020
-5000
-4960
-4950
-4910
-4880
-4860
-4820
-4800
-4760
-4730
-4710
-4680
-4650
-4610
-4610
-4580
-4550
-4540
-4510
-4490
-4500
-4470
-4480
-4450
-4460
-4450
-4450
-4460
-4450
-4460
-4480
-4490
-4500
-4510
-4520
-4560
-4560
-4590
-4600
-4630
-4650
-4680
-4710
-4740
-4770
-4800
-4830
-4870
-4890
-4940
-4950
-4990
-5010
-5040
-5070
-5070
-5100
-5130
-5130
-5160
-5150
-5180
-5180
-5180
-5200
-5180
-5190
-5190
-5190
-5190
-5190
-5170
-5170
-5140
-5130
-5100
-5080
-5050
-5030
-5010
-4980
-4960
-4920
-4900
-4870
-4840
-4810
-4780
-4740
-4720
-4670
-4650
-4620
-4590
-4580
-4530
-4530
-4490
-4480
-4460
-4430
-4450
-4430
-4430
-4430
-4410
-4420
-4430
-4430
-4460
-4460
-4480
-4470
-4490
-4530
-4550
-4590
-4600
-4620
-4650
-4670
-4690
-4700
-4740
-4760
-4790
-4820
-4840
-4890
-4910
-4930
-4980
-4980
-5030
-5050
-5080
-5110
-5120
-5160
-5160
-5180
-5200
-5200
-5200
-5190
-5190
-5190
-5190
-5190
-5170
-5180
-5160
-5150
-5150
-5110
-5110
-5090
-5050
-5050
-5020
-4990
-4970
-4920
-4910
-4870
-4850
-4820
-4780
-4750
-4710
-4690
-4660
-4620
-4610
-4580
-4570
-4540
-4520
-4500
-4480
-4470
-4450
-4440
-4440
-4430
-4440
-4430
-4440
-4450
-4460
-4480
-4480
-4500
-4510
-4520
-4550
-4560
-4590
-4610
-4630
-4670
-4670
-4720
-4730
-4760
-4790
-4820
-4860
-4900
-4920
-4960
-4970
-5010
-5030
-5050
-5080
-5080
-5120
-5120
-5140
-5160
-5170
-5180
-5180
-5190
-5180
-5180
-5180
-5180
-5160
-5160
-5140
-5140
-5110
-5110
-5090
-5060
-5040
-5020
-4980
-4970
-4930
-4910
-4870
-4840
-4830
-4790
-4760
-4720
-4680
-4660
-4620
-4610
-4590
-4570
-4560
-4520
-4520
-4490
-4490
-4480
-4450
-4450
-4420
-4430
-4420
-4420
-4440
-4430
-4460
-4460
-4480
-4500
-4510
-4530
-4540
-4560
-4580
-4590
-4620
-4640
-4670
-4690
-4720
-4760
-4790
-4820
-4870
-4900
-4950
-4960
-4990
-5010
-5020
-5060
-5070
-5090
-5110
-5120
-5150
-5150
-5160
-5190
-5180
-5190
-5190
-5180
-5190
-5170
-5170
-5160
-5150
-5140
-5120
-5100
-5070
-5060
-5040
-5010
-5000
-4960
-4950
-4920
-4890
-4870
-4810
-4810
-4770
-4730
-4710
-4670
-4650
-4620
-4590
-4570
-4550
-4540
-4510
-4500
-4480
-4460
-4470
-4430
-4430
-4440
-4430
-4440
-4430
-4450
-4450
-4460
-4480
-4470
-4500
-4520
-4530
-4550
-4570
-4590
-4620
-4630
-4670
-4700
-4740
-4780
-4810
-4850
-4870
-4890
-4920
-4950
-4980
-4990
-5030
-5050
-5060
-5100
-5090
-5130
-5130
-5150
-5160
-5160
-5180
-5160
-5160
-5170
-5160
-5170
-5140
-5150
-5140
-5120
-5110
-5100
-5060
-5050
-5020
-5020
-5000
-4990
-4960
-4940
-4910
-4870
-4830
-4800
-4760
-4730
-4700
-4670
-4640
-4620
-4600
-4560
-4550
-4520
-4510
-4500
-4470
-4460
-4450
-4440
-4450
-4420
-4440
-4430
-4430
-4450
-4440
-4460
-4460
-4480
-4500
-4500
-4540
-4560
-4570
-4610
-4620
-4650
-4680
-4690
-4740
-4750
-4800
-4820
-4850
-4890
-4910
-4960
-4980
-5000
-5040
-5040
-5080
-5080
-5110
-5120
-5130
-5160
-5150
-5170
-5170
-5170
-5190
-5170
-5170
-5170
-5150
-5160
-5130
-5130
-5120
-5090
-5080
-5050
-5030
-5010
-4990
-4970
-4920
-4910
-4860
-4840
-4810
-4770
-4760
-4710
-4690
-4670
-4640
-4620
-4600
-4560
-4560
-4520
-4510
-4490
-4470
-4450
-4440
-4440
-4410
-4430
-4430
-4420
-4450
-4430
-4440
-4450
-4450
-4470
-4470
-4490
-4510
-4520
-4560
-4570
-4600
-4630
-4660
-4690
-4720
-4750
-4780
-4800
-4850
-4860
-4910
-4940
-4960
-5010
-5020
-5040
-5070
-5090
-5110
-5120
-5140
-5140
-5160
-5180
-5170
-5180
-5180
-5170
-5170
-5160
-5170
-5140
-5140
-5120
-5100
-5090
-5060
-5040
-5030
-4990
-4990
-4940
-4920
-4900
-4870
-4850
-4810
-4770
-4740
-4700
-4680
-4640
-4620
-4600
-4580
-4580
-4550
-4530
-4510
-4490
-4470
-4450
-4440
-4410
-4410
-4420
-4400
-4430
-4420
-4430
-4450
-4440
-4470
-4470
-4480
-4510
-4520
-4540
-4570
-4580
-4620
-4640
-4680
-4710
-4740
-4780
-4800
-4840
-4870
-4900
-4930
-4950
-4980
-5000
-5030
-5060
-5070
-5100
-5090
-5130
-5140
-5140
-5170
-5160
-5180
-5170
-5170
-5170
-5150
-5150
-5150
-5130
-5140
-5110
-5110
-5080
-5050
-5040
-5010
-5000
-4980
-4960
-4950
-4910
-4890
-4850
-4810
-4770
-4740
-4700
-4670
-4640
-4620
-4580
-4570
-4530
-4530
-4510
-4490
-4490
-4480
-4460
-4460
-4440
-4440
-4420
-4450
-4430
-4430
-4440
-4440
-4450
-4470
-4470
-4490
-4510
-4530
-4550
-4560
-4600
-4610
-4650
-4660
-4690
-4730
-4750
-4780
-4810
-4840
-4880
-4890
-4940
-4950
-4990
-5010
-5030
-5050
-5080
-5090
-5120
-5130
-5160
-5170
-5180
-5190
-5170
-5180
-5180
-5170
-5180
-5160
-5160
-5140
-5130
-5120
-5080
-5090
-5050
-5020
-5010
-4980
-4950
-4930
-4890
-4870
-4840
-4810
-4770
-4740
-4710
-4680
-4660
-4610
-4590
-4580
-4540
-4530
-4500
-4480
-4470
-4450
-4440
-4430
-4420
-4410
-4410
-4400
-4410
-4410
-4410
-4430
-4440
-4450
-4480
-4500
-4510
-4550
-4550
-4560
-4590
-4610
-4640
-4660
-4700
-4720
-4770
-4800
-4820
-4870
-4890
-4920
-4960
-4970
-5010
-5010
-5040
-5060
-5070
-5100
-5100
-5120
-5140
-5130
-5160
-5140
-5170
-5160
-5160
-5180
-5160
-5170
-5150
-5140
-5120
-5100
-5090
-5070
-5050
-5030
-4990
-4990
-4960
-4920
-4900
-4870
-4830
-4810
-4770
-4750
-4710
-4690
-4650
-4620
-4600
-4560
-4540
-4530
-4490
-4500
-4460
-4470
-4440
-4430
-4430
-4410
-4410
-4400
-4410
-4420
-4410
-4440
-4440
-4460
-4460
-4480
-4500
-4500
-4530
-4550
-4560
-4590
-4610
-4650
-4690
-4710
-4760
-4780
-4830
-4860
-4890
-4930
-4950
-4980
-5000
-5010
-5040
-5030
-5060
-5070
-5070
-5100
-5090
-5120
-5130
-5130
-5150
-5150
-5170
-5160
-5140
-5150
-5120
-5120
-5090
-5070
-5060
-5020
-5010
-4980
-4960
-4930
-4900
-4880
-4840
-4830
-4810
-4790
-4770
-4750
-4740
-4710
-4680
-4660
-4610
-4590
-4560
-4530
-4520
-4490
-4480
-4470
-4460
-4450
-4430
-4430
-4410
-4410
-4420
-4400
-4420
-4430
-4430
-4450
-4460
-4480
-4490
-4510
-4530
-4550
-4580
-4590
-4610
-4640
-4670
-4700
-4730
-4770
-4810
-4840
-4880
-4890
-4930
-4960
-4980
-5020
-5030
-5050
-5080
-5080
-5110
-5110
-5110
-5140
-5130
-5150
-5140
-5150
-5140
-5130
-5140
-5120
-5110
-5090
-5080
-5070
-5030
-5030
-5010
-4980
-4960
-4930
-4920
-4870
-4850
-4830
-4800
-4770
-4730
-4700
-4690
-4640
-4620
-4580
-4560
-4540
-4510
-4500
-4470
-4450
-4440
-4420
-4420
-4390
-4400
-4400
-4380
-4390
-4390
-4400
-4410
-4400
-4420
-4420
-4430
-4450
-4470
-4490
-4500
-4530
-4550
-4570
-4610
-4620
-4660
-4680
-4720
-4740
-4770
-4810
-4840
-4870
-4910
-4920
-4950
-4980
-4980
-5020
-5020
-5060
-5070
-5090
-5110
-5110
-5130
-5130
-5140
-5140
-5120
-5140
-5120
-5110
-5120
-5090
-5100
-5060
-5040
-5020
-4990
-4980
-4950
-4920
-4910
-4860
-4860
-4810
-4800
-4760
-4730
-4700
-4660
-4620
-4600
-4560
-4540
-4490
-4500
-4470
-4450
-4420
-4410
-4400
-4380
-4360
-4370
-4350
-4360
-4350
-4360
-4380
-4360
-4380
-4390
-4400
-4420
-4430
-4460
-4470
-4490
-4520
-4530
-4560
-4580
-4610
-4660
-4680
-4730
-4760
-4780
-4820
-4830
-4880
-4900
-4920
-4950
-4960
-5000
-5000
-5040
-5040
-5060
-5080
-5080
-5100
-5120
-5110
-5140
-5120
-5140
-5120
-5120
-5120
-5090
-5100
-5060
-5050
-5040
-5000
-4980
-4960
-4920
-4900
-4860
-4840
-4810
-4780
-4750
-4710
-4680
-4650
-4600
-4590
-4550
-4550
-4530
-4520
-4500
-4470
-4470
-4440
-4420
-4410
-4380
-4380
-4350
-4370
-4360
-4340
-4360
-4360
-4360
-4380
-4380
-4420
-4410
-4430
-4450
-4460
-4490
-4500
-4540
-4560
-4580
-4610
-4630
-4660
-4700
-4720
-4770
-4790
-4830
-4860
-4880
-4910
-4930
-4950
-4970
-4980
-5010
-5010
-5040
-5040
-5060
-5080
-5080
-5110
-5120
-5130
-5140
-5120
-5130
-5100
-5080
-5080
-5050
-5040
-5010
-5000
-4980
-4960
-4940
-4900
-4880
-4850
-4810
-4790
-4750
-4730
-4690
-4660
-4640
-4590
-4570
-4550
-4500
-4490
-4460
-4450
-4420
-4410
-4400
-4370
-4370
-4360
-4340
-4350
-4320
-4350
-4340
-4340
-4360
-4350
-4370
-4380
-4400
-4410
-4430
-4450
-4470
-4500
-4530
-4550
-4600
-4600
-4650
-4680
-4690
-4740
-4760
-4780
-4810
-4840
-4880
-4890
-4910
-4950
-4970
-4990
-5000
-5020
-5050
-5050
-5060
-5060
-5070
-5080
-5070
-5070
-5050
-5060
-5050
-5050
-5050
-5040
-5040
-5030
-5010
-5000
-4960
-4950
-4920
-4880
-4870
-4820
-4810
-4780
-4750
-4740
-4690
-4670
-4630
-4600
-4580
-4530
-4500
-4480
-4450
-4430
-4400
-4400
-4370
-4360
-4350
-4340
-4340
-4340
-4350
-4350
-4340
-4370
-4360
-4370
-4380
-4400
-4410
-4410
-4450
-4450
-4470
-4500
-4520
-4540
-4570
-4570
-4610
-4620
-4680
-4720
-4750
-4790
-4810
-4860
-4870
-4900
-4920
-4950
-4970
-4990
-5000
-5040
-5030
-5060
-5070
-5070
-5080
-5070
-5090
-5080
-5070
-5090
-5050
-5070
-5050
-5050
-5030
-5000
-5010
-4970
-4950
-4940
-4900
-4890
-4840
-4820
-4800
-4750
-4740
-4700
-4670
-4650
-4610
-4590
-4550
-4520
-4500
-4460
-4450
-4420
-4410
-4400
-4370
-4380
-4350
-4340
-4340
-4330
-4330
-4330
-4330
-4330
-4330
-4360
-4340
-4390
-4370
-4400
-4430
-4440
-4470
-4480
-4510
-4540
-4550
-4590
-4610
-4640
-4670
-4690
-4740
-4770
-4790
-4840
-4860
-4900
-4900
-4930
-4960
-4970
-5000
-5000
-5030
-5050
-5050
-5070
-5050
-5070
-5080
-5060
-5080
-5060
-5070
-5060
-5040
-5050
-5010
-5010
-4980
-4950
-4940
-4910
-4890
-4860
-4830
-4820
-4770
-4760
-4730
-4700
-4680
-4640
-4620
-4580
-4550
-4530
-4490
-4470
-4440
-4430
-4410
-4370
-4370
-4360
-4340
-4340
-4320
-4330
-4310
-4310
-4320
-4300
-4330
-4330
-4340
-4360
-4350
-4380
-4380
-4420
-4440
-4460
-4500
-4520
-4560
-4580
-4610
-4640
-4660
-4690
-4700
-4750
-4780
-4820
-4860
-4880
-4910
-4930
-4930
-4960
-4980
-4990
-5010
-5010
-5030
-5040
-5030
-5050
-5030
-5060
-5050
-5060
-5060
-5040
-5060
-5030
-5020
-5010
-4990
-4990
-4940
-4940
-4920
-4880
-4860
-4820
-4790
-4760
-4720
-4700
-4640
-4620
-4590
-4550
-4520
-4480
-4470
-4450
-4420
-4420
-4390
-4380
-4360
-4350
-4340
-4310
-4320
-4310
-4300
-4320
-4310
-4320
-4330
-4330
-4350
-4350
-4380
-4380
-4390
-4430
-4430
-4470
-4500
-4510
-4550
-4560
-4590
-4610
-4640
-4690
-4720
-4770
-4800
-4830
-4870
-4870
-4910
-4920
-4960
-4980
-5000
-5030
-5030
-5040
-5060
-5050
-5070
-5060
-5060
-5080
-5070
-5080
-5060
-5060
-5050
-5030
-5020
-5000
-4990
-4960
-4940
-4910
-4890
-4870
-4830
-4800
-4770
-4750
-4720
-4690
-4650
-4630
-4590
-4580
-4540
-4510
-4490
-4450
-4440
-4410
-4400
-4380
-4360
-4360
-4340
-4330
-4330
-4320
-4330
-4320
-4320
-4330
-4330
-4350
-4350
-4360
-4390
-4390
-4430
-4440
-4470
-4490
-4500
-4540
-4560
-4590
-4620
-4640
-4690
-4690
-4740
-4760
-4790
-4850
-4850
-4900
-4910
-4930
-4980
-4970
-5010
-5020
-5030
-5050
-5050
-5070
-5080
-5080
-5080
-5070
-5080
-5060
-5060
-5050
-5040
-5040
-5010
-4990
-4980
-4940
-4940
-4900
-4880
-4860
-4820
-4800
-4760
-4740
-4710
-4670
-4640
-4610
-4590
-4550
-4530
-4510
-4470
-4460
-4430
-4400
-4400
-4360
-4350
-4340
-4330
-4310
-4300
-4300
-4300
-4300
-4300
-4290
-4320
-4310
-4330
-4350
-4350
-4370
-4390
-4430
-4460
-4480
-4510
-4530
-4550
-4590
-4610
-4630
-4660
-4680
-4730
-4750
-4790
-4820
-4850
-4880
-4890
-4920
-4940
-4950
-4970
-4980
-5010
-5010
-5030
-5050
-5050
-5050
-5040
-5060
-5040
-5030
-5020
-5010
-5010
-5000
-4990
-4980
-4940
-4930
-4920
-4880
-4880
-4830
-4820
-4780
-4750
-4730
-4680
-4670
-4620
-4610
-4580
-4550
-4520
-4500
-4470
-4460
-4420
-4410
-4390
-4370
-4360
-4330
-4320
-4300
-4300
-4290
-4280
-4290
-4290
-4290
-4300
-4300
-4310
-4310
-4340
-4350
-4380
-4420
-4440
-4470
-4500
-4520
-4560
-4560
-4610
-4620
-4660
-4690
-4720
-4760
-4790
-4810
-4860
-4870
-4910
-4910
-4930
-4950
-4970
-5000
-5020
-5020
-5040
-5040
-5050
-5040
-5040
-5050
-5030
-5030
-5020
-5000
-5000
-4980
-4980
-4960
-4950
-4940
-4910
-4890
-4860
-4840
-4810
-4770
-4760
-4710
-4690
-4660
-4620
-4610
-4560
-4540
-4510
-4470
-4460
-4420
-4410
-4390
-4370
-4350
-4330
-4330
-4300
-4300
-4290
-4290
-4280
-4300
-4290
-4300
-4300
-4330
-4330
-4340
-4370
-4370
-4410
-4410
-4430
-4470
-4470
-4530
-4530
-4570
-4600
-4610
-4660
-4670
-4720
-4750
-4790
-4810
-4850
-4860
-4890
-4910
-4930
-4950
-4970
-4990
-4990
-5010
-5020
-5030
-5040
-5030
-5050
-5040
-5040
-5040
-5030
-5020
-5010
-5000
-5000
-4960
-4950
-4910
-4900
-4880
-4840
-4840
-4790
-4770
-4740
-4710
-4690
-4640
-4620
-4580
-4560
-4520
-4490
-4490
-4440
-4430
-4410
-4370
-4370
-4340
-4330
-4320
-4290
-4300
-4280
-4280
-4290
-4280
-4290
-4280
-4300
-4320
-4300
-4330
-4330
-4360
-4390
-4400
-4440
-4460
-4480
-4510
-4520
-4550
-4570
-4600
-4640
-4670
-4710
-4730
-4770
-4800
-4810
-4850
-4870
-4900
-4920
-4930
-4970
-4970
-5010
-5010
-5020
-5040
-5030
-5040
-5040
-5040
-5050
-5030
-5050
-5020
-5010
-5010
-4970
-4970
-4930
-4910
-4900
-4870
-4850
-4830
-4810
-4790
-4740
-4720
-4680
-4650
-4620
-4590
-4560
-4520
-4500
-4470
-4430
-4420
-4390
-4380
-4350
-4340
-4330
-4300
-4300
-4300
-4280
-4290
-4280
-4280
-4280
-4290
-4300
-4300
-4310
-4330
-4340
-4370
-4370
-4410
-4430
-4450
-4480
-4490
-4540
-4550
-4600
-4620
-4640
-4680
-4700
-4740
-4770
-4800
-4840
-4850
-4880
-4900
-4920
-4950
-4960
-4990
-5000
-5010
-5020
-5030
-5030
-5040
-5030
-5040
-5020
-5040
-5030
-5010
-5010
-4980
-4970
-4950
-4930
-4920
-4870
-4860
-4830
-4800
-4790
-4740
-4720
-4690
-4660
-4630
-4580
-4570
-4530
-4490
-4460
-4430
-4420
-4400
-4380
-4370
-4340
-4350
-4320
-4330
-4310
-4300
-4290
-4280
-4280
-4280
-4270
-4290
-4290
-4300
-4310
-4320
-4340
-4350
-4380
-4390
-4410
-4460
-4460
-4490
-4530
-4550
-4590
-4600
-4660
-4680
-4710
-4750
-4770
-4800
-4840
-4850
-4890
-4900
-4930
-4940
-4960
-4970
-4990
-5000
-5030
-5030
-5050
-5030
-5060
-5040
-5040
-5040
-5020
-5010
-4990
-4970
-4960
-4930
-4920
-4890
-4870
-4860
-4820
-4820
-4790
-4750
-4730
-4680
-4660
-4630
-4600
-4570
-4540
-4520
-4490
-4460
-4440
-4400
-4390
-4350
-4330
-4310
-4290
-4300
-4280
-4290
-4280
-4270
-4280
-4260
-4260
-4270
-4260
-4290
-4300
-4330
-4350
-4360
-4400
-4400
-4420
-4450
-4460
-4480
-4500
-4550
-4560
-4600
-4640
-4660
-4710
-4720
-4770
-4810
-4820
-4860
-4880
-4890
-4940
-4930
-4970
-4970
-4990
-5020
-5020
-5040
-5040
-5050
-5040
-5040
-5040
-5020
-5020
-5010
-4990
-4990
-4960
-4950
-4930
-4900
-4890
-4860
-4840
-4810
-4800
-4770
-4730
-4710
-4680
-4640
-4610
-4560
-4550
-4510
-4500
-4460
-4420
-4400
-4380
-4360
-4350
-4320
-4320
-4310
-4290
-4290
-4280
-4280
-4280
-4280
-4280
-4280
-4300
-4290
-4310
-4330
-4320
-4360
-4370
-4400
-4430
-4450
-4480
-4500
-4520
-4550
-4580
-4620
-4620
-4680
-4700
-4730
-4770
-4800
-4840
-4850
-4880
-4900
-4910
-4940
-4960
-4970
-4990
-5010
-5030
-5030
-5050
-5050
-5040
-5050
-5040
-5020
-5030
-5000
-4980
-4960
-4950
-4940
-4910
-4900
-4870
-4840
-4820
-4780
-4770
-4730
-4710
-4700
-4640
-4630
-4590
-4560
-4540
-4490
-4480
-4440
-4420
-4390
-4370
-4360
-4330
-4330
-4310
-4300
-4300
-4280
-4280
-4280
-4270
-4280
-4280
-4290
-4310
-4310
-4340
-4330
-4360
-4360
-4390
-4400
-4410
-4450
-4470
-4500
-4520
-4550
-4580
-4610
-4630
-4680
-4690
-4740
-4770
-4800
-4830
-4850
-4890
-4910
-4930
-4950
-4950
-4980
-4970
-4990
-5000
-5010
-5030
-5020
-5030
-5040
-5020
-5020
-5010
-5000
-4990
-4970
-4970
-4950
-4930
-4920
-4880
-4860
-4820
-4800
-4780
-4760
-4750
-4710
-4680
-4640
-4610
-4580
-4530
-4520
-4470
-4450
-4440
-4390
-4390
-4360
-4340
-4330
-4300
-4300
-4290
-4280
-4280
-4270
-4270
-4270
-4280
-4280
-4290
-4310
-4310
-4330
-4350
-4340
-4380
-4390
-4420
-4450
-4470
-4520
-4550
-4580
-4610
-4610
-4670
-4680
-4710
-4740
-4760
-4810
-4830
-4860
-4900
-4900
-4930
-4950
-4960
-4980
-4990
-5000
-5010
-5030
-5040
-5030
-5050
-5020
-5030
-5030
-5000
-5010
-4990
-4980
-4970
-4940
-4930
-4910
-4900
-4860
-4840
-4820
-4780
-4770
-4730
-4690
-4680
-4620
-4610
-4560
-4550
-4520
-4470
-4460
-4430
-4400
-4390
-4360
-4340
-4320
-4310
-4310
-4290
-4290
-4280
-4280
-4280
-4280
-4290
-4290
-4300
-4300
-4330
-4330
-4350
-4370
-4400
-4400
-4450
-4460
-4490
-4510
-4540
-4570
-4590
-4630
-4660
-4680
-4730
-4740
-4790
-4810
-4840
-4880
-4870
-4930
-4940
-4940
-4980
-4980
-5010
-5010
-5040
-5040
-5050
-5050
-5050
-5050
-5040
-5020
-5030
-5010
-5000
-4980
-4960
-4960
-4920
-4910
-4890
-4860
-4840
-4810
-4790
-4750
-4720
-4700
-4650
-4630
-4590
-4550
-4550
-4500
-4490
-4470
-4440
-4440
-4390
-4380
-4360
-4340
-4330
-4300
-4300
-4290
-4290
-4280
-4280
-4290
-4290
-4290
-4310
-4310
-4340
-4340
-4370
-4380
-4400
-4420
-4430
-4450
-4490
-4500
-4540
-4550
-4590
-4630
-4650
-4690
-4720
-4740
-4770
-4800
-4830
-4860
-4880
-4920
-4940
-4970
-5000
-5010
-5040
-5010
-5050
-5020
-5040
-5040
-5020
-5040
-5030
-5030
-5010
-5010
-5010
-4970
-4960
-4960
-4930
-4910
-4880
-4870
-4840
-4810
-4790
-4750
-4730
-4700
-4650
-4640
-4590
-4570
-4530
-4510
-4490
-4470
-4450
-4440
-4420
-4410
-4380
-4360
-4340
-4330
-4300
-4300
-4290
-4270
-4290
-4290
-4290
-4310
-4310
-4330
-4340
-4350
-4370
-4370
-4400
-4420
-4440
-4470
-4490
-4520
-4550
-4580
-4610
-4620
-4660
-4690
-4720
-4760
-4780
-4820
-4850
-4860
-4900
-4910
-4950
-4960
-4970
-5010
-4990
-5050
-5040
-5060
-5070
-5060
-5060
-5060
-5050
-5050
-5030
-5030
-5000
-5000
-4980
-4950
-4950
-4910
-4890
-4870
-4830
-4820
-4780
-4750
-4730
-4690
-4680
-4630
-4610
-4580
-4540
-4510
-4470
-4450
-4430
-4400
-4390
-4340
-4340
-4310
-4300
-4300
-4270
-4260
-4260
-4260
-4280
-4270
-4290
-4280
-4280
-4320
-4310
-4350
-4360
-4380
-4420
-4410
-4460
-4470
-4510
-4540
-4550
-4600
-4620
-4660
-4700
-4730
-4770
-4800
-4830
-4850
-4860
-4900
-4910
-4930
-4970
-4970
-5000
-5010
-5020
-5040
-5050
-5070
-5060
-5080
-5050
-5050
-5050
-5030
-5030
-5030
-5000
-5000
-4970
-4970
-4930
-4920
-4900
-4860
-4850
-4830
-4790
-4770
-4720
-4700
-4650
-4630
-4610
-4580
-4540
-4510
-4480
-4460
-4430
-4420
-4390
-4370
-4360
-4320
-4330
-4310
-4280
-4300
-4280
-4290
-4290
-4300
-4310
-4310
-4330
-4330
-4340
-4370
-4360
-4390
-4410
-4430
-4440
-4470
-4500
-4520
-4560
-4590
-4600
-4650
-4660
-4700
-4740
-4760
-4800
-4820
-4850
-4880
-4900
-4920
-4950
-4970
-4980
-5000
-5020
-5000
-5040
-5030
-5040
-5050
-5030
-5050
-5030
-5030
-5020
-5000
-5000
-4980
-4960
-4950
-4910
-4910
-4880
-4850
-4840
-4790
-4790
-4740
-4720
-4700
-4650
-4630
-4570
-4560
-4510
-4480
-4480
-4440
-4440
-4410
-4400
-4390
-4360
-4340
-4330
-4310
-4310
-4280
-4290
-4280
-4270
-4290
-4300
-4310
-4310
-4330
-4340
-4350
-4370
-4380
-4390
-4430
-4430
-4480
-4490
-4520
-4560
-4580
-4620
-4630
-4680
-4710
-4730
-4780
-4790
-4810
-4850
-4870
-4900
-4910
-4940
-4960
-4970
-5000
-5000
-5030
-5030
-5040
-5050
-5050
-5040
-5040
-5040
-5040
-5020
-5030
-5010
-4990
-4980
-4950
-4940
-4910
-4890
-4870
-4830
-4820
-4780
-4750
-4730
-4680
-4670
-4620
-4580
-4560
-4520
-4510
-4470
-4440
-4430
-4390
-4380
-4360
-4330
-4330
-4300
-4310
-4290
-4290
-4280
-4280
-4300
-4280
-4290
-4280
-4280
-4300
-4300
-4330
-4350
-4360
-4400
-4410
-4440
-4480
-4490
-4540
-4540
-4580
-4610
-4620
-4670
-4690
-4730
-4760
-4780
-4820
-4840
-4880
-4900
-4910
-4960
-4940
-4980
-4980
-5000
-5020
-5010
-5040
-5030
-5020
-5030
-5010
-5020
-5010
-5000
-5000
-4990
-4970
-4960
-4930
-4920
-4870
-4860
-4830
-4810
-4790
-4770
-4740
-4710
-4690
-4660
-4620
-4590
-4550
-4530
-4500
-4460
-4460
-4420
-4400
-4380
-4350
-4340
-4320
-4320
-4310
-4290
-4290
-4270
-4290
-4280
-4270
-4300
-4280
-4300
-4310
-4310
-4340
-4340
-4360
-4400
-4410
-4440
-4450
-4500
-4510
-4540
-4580
-4590
-4630
-4650
-4690
-4720
-4740
-4780
-4810
-4830
-4870
-4880
-4910
-4940
-4950
-4980
-4990
-5000
-5010
-5020
-5030
-5010
-5030
-5010
-5020
-5010
-4990
-5000
-4970
-4960
-4960
-4940
-4950
-4920
-4910
-4890
-4850
-4840
-4800
-4770
-4750
-4700
-4680
-4630
-4620
-4580
-4530
-4520
-4480
-4460
-4430
-4410
-4390
-4360
-4350
-4330
-4310
-4310
-4290
-4280
-4260
-4260
-4260
-4250
-4260
-4280
-4280
-4290
-4290
-4320
-4310
-4330
-4350
-4360
-4400
-4400
-4440
-4470
-4480
-4510
-4530
-4560
-4600
-4620
-4670
-4700
-4740
-4780
-4800
-4840
-4850
-4870
-4890
-4910
-4930
-4940
-4960
-4980
-4990
-5020
-5020
-5040
-5030
-5020
-5030
-5010
-5020
-5010
-4990
-5000
-4970
-4960
-4950
-4910
-4900
-4850
-4840
-4810
-4780
-4760
-4720
-4690
-4650
-4620
-4600
-4560
-4550
-4500
-4490
-4460
-4430
-4410
-4380
-4360
-4340
-4320
-4310
-4280
-4270
-4270
-4260
-4260
-4250
-4260
-4260
-4250
-4270
-4270
-4290
-4300
-4310
-4330
-4340
-4370
-4390
-4400
-4440
-4460
-4490
-4520
-4540
-4590
-4600
-4650
-4680
-4710
-4750
-4770
-4810
-4830
-4860
-4890
-4910
-4940
-4940
-4970
-4990
-4990
-5020
-5000
-5010
-5020
-5010
-5020
-5000
-5000
-5000
-4980
-4980
-4960
-4960
-4950
-4920
-4910
-4880
-4850
-4830
-4790
-4780
-4740
-4710
-4700
-4650
-4630
-4590
-4570
-4530
-4490
-4480
-4440
-4430
-4390
-4360
-4350
-4330
-4320
-4300
-4280
-4270
-4250
-4250
-4230
-4250
-4250
-4250
-4280
-4270
-4280
-4290
-4290
-4320
-4330
-4350
-4380
-4380
-4430
-4440
-4470
-4490
-4520
-4560
-4580
-4610
-4650
-4670
-4710
-4740
-4760
-4800
-4830
-4860
-4870
-4890
-4920
-4930
-4950
-4970
-4980
-4980
-4980
-5010
-4980
-5000
-5000
-4990
-5000
-4970
-4980
-4970
-4960
-4960
-4930
-4910
-4880
-4860
-4840
-4800
-4790
-4770
-4740
-4710
-4680
-4650
-4620
-4580
-4550
-4500
-4490
-4450
-4420
-4410
-4370
-4360
-4340
-4330
-4320
-4310
-4290
-4290
-4280
-4270
-4250
-4270
-4250
-4260
-4260
-4270
-4270
-4280
-4300
-4310
-4330
-4350
-4360
-4390
-4410
-4440
-4460
-4480
-4520
-4540
-4570
-4600
-4620
-4660
-4690
-4730
-4760
-4780
-4830
-4830
-4850
-4880
-4890
-4930
-4930
-4950
-4970
-4970
-5010
-4990
-4990
-5000
-4980
-4990
-4980
-4980
-4980
-4960
-4960
-4950
-4930
-4920
-4890
-4870
-4840
-4810
-4780
-4750
-4720
-4690
-4650
-4630
-4600
-4580
-4530
-4520
-4480
-4450
-4430
-4390
-4390
-4370
-4350
-4340
-4300
-4290
-4280
-4260
-4260
-4240
-4230
-4230
-4240
-4240
-4250
-4260
-4260
-4270
-4290
-4290
-4330
-4330
-4350
-4380
-4390
-4440
-4440
-4480
-4510
-4530
-4570
-4590
-4630
-4660
-4680
-4720
-4740
-4780
-4800
-4830
-4860
-4870
-4900
-4920
-4940
-4960
-4970
-4970
-4990
-4990
-4990
-4990
-5000
-4990
-4990
-4980
-4960
-4960
-4940
-4940
-4910
-4880
-4870
-4850
-4820
-4800
-4760
-4760
-4720
-4690
-4680
-4630
-4610
-4570
-4540
-4520
-4470
-4450
-4410
-4400
-4360
-4350
-4320
-4300
-4280
-4280
-4240
-4260
-4230
-4230
-4230
-4230
-4240
-4240
-4250
-4250
-4260
-4280
-4280
-4300
-4310
-4330
-4360
-4370
-4390
-4410
-4450
-4480
-4500
-4530
-4570
-4590
-4630
-4650
-4690
-4710
-4740
-4770
-4790
-4840
-4850
-4880
-4890
-4900
-4930
-4930
-4960
-4970
-4960
-4990
-4980
-4980
-4990
-4960
-4980
-4960
-4960
-4960
-4930
-4930
-4900
-4870
-4860
-4820
-4810
-4780
-4750
-4750
-4710
-4690
-4640
-4630
-4600
-4550
-4540
-4500
-4470
-4450
-4410
-4390
-4350
-4350
-4320
-4300
-4290
-4260
-4250
-4240
-4230
-4240
-4210
-4220
-4210
-4220
-4230
-4220
-4240
-4240
-4260
-4270
-4290
-4320
-4340
-4360
-4400
-4410
-4450
-4460
-4500
-4530
-4570
-4600
-4630
-4660
-4700
-4700
-4750
-4760
-4790
-4810
-4820
-4860
-4870
-4920
-4930
-4950
-4970
-4970
-4980
-4980
-4970
-4990
-4970
-4980
-4980
-4960
-4960
-4920
-4930
-4900
-4880
-4880
-4850
-4840
-4810
