1077
1749
1089
1686
1263
1263
1686
1014
1713
1227
1335
1653
987
1833
1134
1485
1512
1086
1776
1086
1602
1446
1083
1773
1062
1674
1326
1230
1638
1011
1767
1197
1293
1623
996
1752
1053
1479
1593
972
1809
1125
1485
1434
1170
1743
1032
1680
1317
1218
1713
1044
1719
1290
1227
1665
1074
1734
1200
1356
1584
1080
1608
1146
1575
1509
1137
1725
1059
1647
1380
1170
1812
876
1782
1284
1284
1665
1002
1653
1200
1404
1593
1017
1830
1062
1563
1497
1065
1800
1008
1620
1407
1125
1767
1032
1704
1254
1275
1707
963
1776
1221
1317
1605
1029
1812
1083
1455
1548
1059
1830
1092
1593
1431
1122
1785
1020
1680
1350
1239
1617
1044
1698
1239
1314
1704
1011
1755
1188
1452
1539
1023
1809
1059
1581
1401
1122
1788
1080
1572
1386
1158
1728
1020
1725
1254
1248
1671
1011
1821
1098
1401
1605
996
1794
1101
1509
1512
1104
1761
1113
1575
1416
1176
1767
1083
1644
1335
1200
1674
1008
1773
1038
1410
1653
963
1806
1095
1503
1530
1107
1809
1032
1614
1431
1104
1782
1035
1692
1278
1197
1776
921
1749
1251
1215
1572
1017
1851
1095
1458
1548
1053
1734
1107
1560
1467
1113
1779
1047
1551
1353
1218
1755
1032
1758
1110
1308
1686
1017
1752
1200
1410
1617
978
1722
1113
1554
1572
945
1824
1083
1563
1356
1185
1674
1020
1743
1347
1113
1674
960
1764
1176
1476
1449
1029
1887
1080
1521
1647
1074
1710
1092
1602
1440
1119
1899
831
1743
1368
1149
1692
1062
1629
1257
1374
1656
984
1815
1230
1320
1581
1068
1812
1092
1551
1428
1158
1794
1038
1761
1272
1224
1716
948
1770
1311
1260
1680
1011
1812
1152
1434
1644
1002
1857
1086
1560
1452
1173
1734
1062
1668
1395
1062
1749
1005
1752
1248
1281
1617
972
1713
1185
1434
1584
990
1824
1104
1521
1503
1086
1791
1035
1671
1458
1173
1761
1053
1662
1302
1239
1692
954
1827
1101
1356
1596
1020
1821
1050
1521
1494
1050
1854
981
1599
1395
1167
1788
1017
1647
1320
1170
1728
972
1737
1215
1347
1665
855
1857
1125
1518
1461
1047
1815
1056
1656
1350
1113
1758
975
1707
1347
1179
1725
969
1791
1188
1311
1650
996
1848
1131
1485
1572
1053
1830
1032
1584
1485
1098
1842
1068
1581
1434
1182
1743
933
1755
1257
1179
1692
936
1809
1140
1413
1584
1026
1743
1116
1614
1464
1083
1794
1026
1674
1374
1116
1743
993
1740
1254
1251
1803
831
1821
1194
1365
1602
960
1806
1170
1353
1575
1059
1782
1050
1581
1440
1128
1818
981
1728
1308
1242
1671
975
1812
1182
1260
1680
990
1851
999
1509
1515
1083
1776
1089
1605
1431
1137
1788
990
1686
1359
1086
1776
1008
1701
1275
1287
1620
981
1809
1110
1455
1488
1026
1863
1101
1584
1491
1059
1752
1071
1626
1335
1158
1785
966
1746
1272
1293
1605
990
1821
1161
1398
1563
987
1818
1074
1554
1494
1068
1842
1041
1587
1452
1113
1812
1041
1716
1296
1203
1716
984
1707
1245
1338
1536
981
1839
1098
1317
1575
1059
1815
1047
1587
1434
1146
1791
945
1707
1410
1086
1761
978
1767
1224
1347
1560
912
1818
1155
1455
1536
1005
1752
1059
1590
1467
999
1809
1035
1662
1383
1089
1752
957
1731
1293
1257
1626
972
1821
1158
1431
1554
999
1818
1071
1518
1542
978
1800
978
1644
1383
1152
1767
960
1761
1299
1218
1722
999
1779
1137
1401
1563
990
1785
1137
1494
1521
1056
1785
1029
1653
1395
1098
1785
1032
1701
1344
1173
1722
996
1788
1206
1320
1689
882
1836
1140
1488
1536
1047
1839
1020
1509
1503
1089
1788
1005
1668
1362
1161
1740
1017
1731
1248
1230
1686
990
1755
1170
1407
1557
996
1851
1065
1623
1326
1104
1815
1047
1599
1395
1149
1788
1005
1680
1275
1260
1719
972
1788
1170
1320
1620
987
1944
1050
1515
1575
1065
1830
1050
1623
1470
1017
1833
1005
1740
1290
1221
1737
927
1758
1239
1269
1665
978
1875
1095
1440
1584
1005
1875
1029
1584
1473
1113
1785
1011
1725
1221
1188
1782
942
1758
1257
1284
1677
990
1809
1158
1422
1587
1008
1797
1074
1560
1491
1092
1806
1038
1668
1269
1143
1800
996
1671
1317
1257
1668
1026
1734
1203
1383
1629
987
1875
978
1539
1566
1011
1848
1029
1614
1419
1116
1797
939
1719
1428
1077
1776
987
1734
1179
1338
1707
846
1851
1173
1455
1560
1005
1797
1035
1584
1365
1125
1824
963
1722
1332
1188
1788
825
1812
1230
1293
1671
951
1830
1179
1413
1584
1059
1797
1026
1593
1497
1128
1782
1059
1641
1311
1167
1815
897
1779
1260
1236
1725
1002
1806
1137
1428
1560
972
1854
1071
1524
1512
966
1827
1041
1677
1395
1107
1833
990
1722
1302
1182
1752
948
1824
1164
1335
1689
867
1836
1128
1479
1527
1011
1878
1005
1569
1467
1098
1803
1002
1683
1356
1140
1740
960
1812
1215
1242
1686
966
1848
1107
1443
1599
978
1854
1008
1569
1509
1041
1848
960
1821
1266
1206
1824
951
1749
1182
1263
1674
957
1824
1122
1398
1659
921
1851
1092
1527
1485
1002
1881
1011
1623
1383
1155
1824
915
1731
1281
1215
1791
819
1863
1197
1329
1596
927
1887
1089
1473
1590
960
1896
1032
1653
1275
1122
1890
993
1731
1290
1194
1809
927
1788
1305
1197
1719
948
1833
1203
1398
1683
939
1887
1071
1266
1551
1074
1857
1035
1539
1383
1146
1764
837
1782
1305
1140
1743
948
1863
1095
1416
1650
879
1929
1014
1551
1503
969
1854
978
1743
1260
1134
1842
936
1734
1311
1194
1761
870
1863
1146
1329
1635
960
1908
1089
1518
1491
1041
1905
987
1659
1326
1134
1836
960
1716
1329
1128
1803
930
1797
1197
1287
1725
753
1860
1134
1431
1635
930
1941
894
1611
1503
1014
1866
1077
1515
1395
1179
1818
924
1788
1233
1221
1725
978
1770
1161
1458
1602
918
1929
1074
1287
1608
1059
1878
987
1659
1401
1110
1824
963
1770
1209
1239
1779
942
1752
1206
1374
1656
966
1800
1101
1512
1536
1005
1902
1023
1638
1431
1176
1599
1011
1767
1326
1104
1770
945
1884
1188
1365
1629
918
1875
1107
1434
1548
975
2004
948
1638
1503
1056
1872
897
1746
1344
1161
1776
984
1785
1233
1293
1707
945
1830
1110
1437
1617
960
1932
1017
1536
1542
1047
1869
891
1740
1374
1134
1821
921
1821
1119
1194
1746
918
1869
1119
1413
1521
954
1923
1035
1554
1512
1077
1833
1038
1626
1386
1119
1848
894
1800
1296
1158
1710
921
1860
1179
1269
1719
948
1875
1074
1500
1551
993
1914
990
1608
1422
1080
1866
999
1674
1242
1188
1776
909
1830
1194
1335
1584
948
1899
1068
1491
1587
957
1803
1044
1665
1464
1050
1863
921
1746
1314
1149
1758
882
1860
1215
1314
1683
894
1905
1119
1425
1614
939
1914
1008
1593
1512
1077
1833
954
1746
1332
1110
1839
891
1863
1167
1284
1719
810
1935
1143
1359
1668
942
1899
1035
1572
1572
936
1977
807
1743
1437
1062
1911
918
1800
1266
1134
1785
876
1863
1161
1302
1710
918
1836
1065
1482
1593
990
1890
993
1653
1455
1023
1941
912
1779
1362
1128
1836
870
1833
1203
1347
1725
813
1935
1110
1398
1635
888
1944
1014
1587
1539
999
1932
960
1755
1347
1077
1872
876
1812
1296
1194
1677
873
1917
1143
1350
1665
843
1944
1050
1542
1533
942
1968
966
1650
1419
1068
1929
915
1761
1347
1107
1656
894
1875
1191
1275
1731
822
1923
1107
1446
1632
897
1929
999
1584
1467
1002
1917
870
1683
1383
1101
1872
873
1857
1242
1188
1752
837
1893
1098
1317
1713
888
1923
1029
1530
1557
954
1923
948
1587
1485
1032
1917
951
1680
1308
1158
1803
924
1776
1200
1293
1707
861
1935
1089
1434
1602
906
1944
948
1602
1644
852
1959
966
1674
1368
1107
1884
771
1866
1245
1245
1761
864
1914
1122
1371
1782
720
1941
1059
1527
1587
957
1956
930
1692
1452
978
1923
873
1761
1293
1188
1815
867
1821
1191
1266
1770
813
1914
1011
1497
1605
957
1944
972
1623
1503
978
1875
924
1743
1293
1128
1860
873
1842
1206
1266
1701
858
1932
1056
1422
1653
897
1950
1038
1524
1461
972
1932
897
1692
1398
1089
1887
909
1800
1260
1212
1749
852
1899
1155
1344
1689
861
1950
1017
1482
1599
861
1971
981
1683
1431
1017
1932
897
1782
1308
1119
1845
831
1884
1209
1257
1746
885
1899
1074
1446
1629
837
2007
963
1644
1488
987
1917
912
1737
1359
1089
1860
861
1908
1191
1188
1749
864
1941
1089
1377
1665
867
1947
981
1569
1563
918
1965
945
1671
1398
1059
1890
855
1845
1218
1179
1806
819
1905
1140
1335
1692
849
1959
990
1518
1608
885
1986
984
1662
1488
1011
1917
870
1794
1302
1092
1890
858
1908
1200
1191
1758
846
1932
1038
1494
1587
879
1989
954
1599
1524
987
1953
909
1725
1419
1044
1908
858
1863
1179
1224
1809
831
1917
1095
1380
1680
837
1965
1002
1506
1572
915
1980
936
1680
1425
1044
1941
852
1812
1248
1176
1836
837
1911
1131
1278
1737
801
1971
1071
1482
1596
855
2016
948
1626
1521
981
1968
867
1788
1299
1104
1872
846
1878
1188
1224
1788
840
1965
1095
1380
1665
900
1896
1029
1557
1590
903
1953
942
1656
1404
1050
1914
867
1815
1233
1161
1860
783
1911
1086
1332
1719
846
1869
1014
1515
1566
909
1986
951
1605
1500
987
1938
861
1773
1335
1152
1809
903
1812
1212
1242
1710
846
1932
1089
1476
1650
843
1962
1023
1572
1548
954
1998
846
1719
1404
1080
1947
840
1887
1206
1191
1824
810
1929
1104
1335
1716
852
1959
1011
1545
1596
909
1971
975
1611
1461
1029
1959
813
1806
1308
1137
1893
828
1869
1194
1263
1764
753
1965
1053
1455
1647
855
1974
975
1620
1494
1005
1911
894
1761
1353
1080
1875
840
1872
1203
1224
1752
810
1935
1071
1419
1665
879
1938
918
1533
1569
954
1962
954
1683
1425
1068
1896
894
1821
1239
1185
1803
777
1917
1131
1356
1725
828
1953
981
1542
1551
918
2004
951
1668
1485
1083
1839
900
1824
1242
1119
1872
795
1860
1167
1287
1722
837
1989
1068
1470
1608
885
2010
939
1599
1482
981
1971
888
1776
1344
1116
1905
801
1896
1227
1233
1773
822
1962
1104
1407
1659
843
1992
972
1653
1404
999
1977
843
1737
1422
1050
1938
855
1752
1239
1245
1752
828
1944
1062
1320
1755
807
1902
1005
1506
1599
918
1995
939
1674
1422
1026
1920
897
1797
1296
1149
1830
816
1899
1167
1287
1671
801
1950
1074
1449
1632
876
1977
939
1608
1500
948
1983
828
1776
1389
1131
1863
783
1890
1212
1224
1776
822
1884
1110
1455
1629
795
1989
996
1566
1497
978
1971
927
1665
1437
1044
1935
852
1827
1272
1032
1866
816
1935
1170
1239
1755
834
1953
1023
1500
1602
915
1950
903
1662
1503
990
1980
879
1767
1341
1113
1878
816
1905
1206
1224
1812
792
1968
1038
1434
1683
873
1968
984
1572
1536
936
1992
942
1689
1374
1068
1911
843
1836
1269
1125
1839
822
1932
1167
1335
1752
831
1962
987
1494
1635
822
2001
963
1641
1485
981
1959
846
1797
1413
1020
1914
852
1872
1206
1218
1743
837
1962
1047
1380
1716
837
1992
993
1578
1551
969
1872
945
1713
1407
1029
1929
864
1860
1260
1152
1842
816
1926
1104
1335
1764
798
1965
1041
1509
1605
891
2025
939
1662
1461
1008
1968
867
1827
1326
1059
1893
822
1896
1179
1245
1785
819
1935
1074
1455
1641
891
1944
966
1581
1545
948
1989
891
1725
1308
1068
1989
807
1881
1239
1191
1845
759
1956
1092
1326
1701
789
1965
1023
1488
1590
924
1992
909
1662
1434
1017
1938
849
1833
1278
1119
1890
798
1971
1131
1299
1755
783
1983
1014
1482
1638
867
2025
921
1605
1500
987
1980
873
1797
1305
1110
1878
804
1908
1245
1203
1794
792
1956
1074
1425
1659
855
1989
951
1617
1482
966
2007
882
1746
1335
1077
1950
846
1887
1164
1203
1839
801
1893
1125
1389
1731
780
1989
978
1545
1578
921
1986
915
1698
1404
966
1941
822
1854
1266
1152
1845
816
1917
1137
1302
1761
840
1959
1014
1518
1614
882
1980
927
1644
1539
951
1977
852
1800
1308
1104
1830
834
1926
1158
1266
1770
735
1986
1053
1452
1647
816
2001
909
1650
1512
981
1953
921
1794
1338
1083
1899
837
1845
1206
1230
1746
795
1974
1074
1398
1674
822
1968
996
1545
1554
936
1950
849
1701
1422
1077
1899
834
1845
1239
1173
1827
807
1926
1140
1347
1746
846
1989
1029
1521
1608
888
1956
912
1707
1473
1023
1911
897
1815
1293
1128
1833
837
1893
1161
1260
1731
888
1908
1134
1392
1650
888
1992
978
1605
1500
981
1947
900
1836
1212
1113
1896
828
1875
1167
1197
1791
828
1947
1047
1356
1665
816
1959
981
1593
1530
954
1977
921
1710
1410
1047
1923
798
1839
1233
1182
1794
792
1923
1125
1353
1710
813
1968
1068
1530
1587
933
2031
909
1695
1455
1017
1932
864
1800
1218
1122
1890
825
1899
1164
1263
1749
840
1938
1059
1452
1638
888
1959
951
1608
1533
978
1929
879
1737
1362
1083
1902
831
1860
1245
1179
1845
771
1926
1125
1377
1695
816
2001
1017
1551
1557
939
1995
864
1722
1425
1050
1905
867
1830
1251
1161
1842
855
1917
1128
1302
1725
837
1935
1023
1488
1614
900
1953
951
1680
1383
1020
1950
876
1776
1326
1092
1884
828
1938
1104
1284
1782
810
1974
1008
1362
1605
879
1959
1026
1527
1569
975
1935
918
1758
1305
1074
1935
858
1779
1260
1185
1818
828
1932
1137
1311
1752
750
1974
1014
1530
1584
924
1965
936
1659
1419
1029
1929
945
1692
1329
1152
1854
852
1890
1179
1308
1671
819
1935
1044
1464
1653
912
1995
972
1614
1512
996
1971
846
1791
1311
1068
1896
837
1854
1206
1212
1791
819
1947
1095
1341
1611
849
1989
978
1617
1425
978
1980
918
1719
1467
993
1953
822
1854
1227
1218
1761
822
1935
1131
1335
1725
807
1980
1050
1467
1587
921
2010
924
1689
1446
1050
1881
885
1800
1302
1092
1839
843
1914
1149
1296
1731
825
1971
1029
1476
1650
873
1974
957
1626
1515
918
1983
888
1773
1350
1092
1896
768
1857
1230
1251
1776
816
1965
1074
1368
1659
867
2070
807
1626
1551
960
1941
891
1761
1374
1059
1914
825
1896
1209
1203
1806
819
1938
1095
1383
1680
798
1980
1008
1473
1596
909
1950
903
1701
1443
1002
1980
849
1818
1236
1128
1851
831
1857
1167
1314
1722
807
1965
996
1482
1638
903
1986
957
1596
1503
945
1956
816
1812
1311
1107
1932
786
1923
1170
1200
1821
762
1959
1068
1389
1728
789
1971
963
1590
1560
948
1962
888
1704
1413
1050
1941
819
1830
1188
1218
1854
813
1929
1128
1341
1743
828
1977
1029
1527
1587
945
2022
900
1659
1494
1020
1953
852
1911
1173
1176
1884
819
1959
1098
1302
1743
801
1971
1020
1455
1641
903
1947
846
1695
1506
960
1941
861
1791
1344
1065
1905
813
1926
1188
1251
1809
792
1968
1083
1455
1650
849
2028
924
1596
1545
963
1908
915
1725
1389
1047
1962
777
1893
1299
1098
1854
813
1893
1095
1380
1695
807
2001
996
1539
1557
846
2043
921
1788
1326
1032
1935
789
1848
1263
1176
1830
759
1935
1167
1344
1629
813
1998
1014
1497
1608
867
2016
879
1659
1575
801
1959
855
1827
1242
1137
1905
807
1908
1182
1254
1731
834
1989
1047
1458
1608
840
2013
960
1617
1536
930
2001
900
1779
1362
1065
1914
891
1776
1209
1236
1818
801
1965
1092
1356
1701
819
2004
966
1611
1428
918
2010
900
1719
1410
1071
1926
840
1854
1254
1140
1767
858
1905
1119
1335
1725
831
1878
1032
1569
1548
888
1992
936
1734
1428
987
1971
855
1812
1314
1104
1872
819
1917
1158
1314
1692
807
1977
1038
1461
1638
795
1998
939
1638
1509
1017
1896
897
1782
1359
1086
1884
783
1899
1203
1221
1773
786
1935
1101
1317
1737
810
2022
987
1557
1566
909
1998
903
1689
1413
1023
2031
729
1872
1260
1149
1848
771
1941
1134
1266
1755
825
2052
975
1527
1629
897
2016
930
1641
1476
1011
1962
858
1758
1275
1107
1857
816
1911
1140
1248
1776
879
1932
1068
1458
1581
852
2025
870
1629
1518
951
1983
909
1740
1404
1086
1929
825
1812
1224
1200
1803
798
1923
1074
1395
1671
831
2007
969
1581
1596
918
1983
867
1734
1386
1038
1995
828
1860
1245
1191
1842
825
1923
1143
1347
1701
798
1986
957
1527
1590
912
1965
921
1722
1386
1014
1983
861
1818
1236
1158
1854
786
1929
1107
1296
1764
801
2013
1008
1449
1650
861
1956
984
1584
1497
954
2022
828
1791
1371
1014
1908
900
1851
1239
1233
1839
744
1953
1080
1350
1716
762
2031
978
1575
1587
930
2001
912
1710
1407
1071
1875
849
1851
1293
1152
1851
798
1947
1107
1290
1707
804
1998
1008
1644
1506
849
2037
930
1677
1464
1023
1827
876
1833
1308
1101
1896
771
1941
1191
1236
1788
795
2004
1053
1425
1653
852
2013
954
1590
1575
852
1992
864
1791
1350
1056
1935
819
1914
1161
1218
1812
822
2001
1083
1374
1656
810
2019
993
1554
1518
876
2031
894
1683
1419
1023
1947
819
1866
1233
1155
1815
825
1956
1110
1326
1743
795
2031
975
1536
1584
912
2019
837
1704
1488
933
1944
864
1818
1245
1125
1881
774
1953
1131
1305
1761
771
2001
1056
1443
1662
831
2004
927
1641
1524
849
2031
876
1782
1371
1023
1911
816
1905
1209
1176
1710
747
2001
1077
1383
1701
870
1830
1008
1575
1593
891
2031
867
1719
1419
1002
1974
813
1719
1263
1146
1875
777
1977
1125
1284
1659
789
2022
999
1512
1584
879
2022
909
1659
1458
915
2013
843
1806
1305
1068
1929
723
1956
1185
1242
1788
813
1896
1056
1443
1665
825
2037
975
1581
1560
1017
1932
861
1794
1380
1059
1938
786
1893
1254
1119
1827
843
1920
1116
1377
1707
801
2013
978
1536
1551
882
2007
915
1677
1431
1017
1956
867
1854
1218
1101
1851
792
1950
1128
1290
1740
747
2025
1011
1494
1590
858
2070
879
1647
1494
969
1977
816
1842
1362
1044
1920
801
1917
1185
1221
1779
774
1992
1059
1413
1665
837
2058
888
1629
1533
897
2004
882
1731
1380
1038
1899
801
1917
1209
1173
1857
783
1950
1092
1335
1731
771
2019
954
1572
1548
915
2013
891
1701
1452
1011
2004
807
1833
1278
1140
1902
744
1950
1170
1311
1701
822
2001
1041
1461
1662
816
1971
942
1659
1506
951
2016
843
1791
1350
1053
1938
759
1929
1158
1230
1839
786
2022
1023
1401
1701
840
2013
978
1563
1554
912
2007
852
1743
1395
1014
1968
828
1830
1203
1185
1836
783
1950
1104
1317
1743
741
2046
966
1467
1578
858
2022
915
1650
1491
975
2001
840
1764
1350
1026
1944
783
1911
1158
1269
1788
780
1983
1011
1488
1641
846
2046
930
1629
1554
945
1971
870
1767
1329
1005
1890
816
1869
1224
1209
1830
717
1986
1116
1377
1686
810
2073
921
1527
1599
885
2016
885
1650
1461
999
2001
819
1830
1287
1128
1866
768
1923
1149
1299
1698
777
2031
939
1512
1650
852
2037
876
1659
1515
960
1974
834
1824
1344
1071
1893
813
1917
1164
1239
1806
753
2001
1071
1392
1677
822
2031
945
1560
1563
900
1992
891
1740
1395
1017
1971
816
1866
1242
1176
1857
807
1962
1074
1332
1713
810
1995
909
1560
1620
909
1989
900
1695
1470
963
1977
909
1770
1308
1134
1890
792
1947
1173
1251
1764
738
2028
1041
1458
1692
792
2058
906
1638
1536
921
2016
891
1758
1311
1026
1884
819
1974
1143
1227
1824
771
1971
1047
1404
1665
807
2061
972
1593
1584
912
1983
873
1743
1419
993
1884
843
1878
1227
1161
1872
777
1947
1122
1317
1770
735
2040
1011
1500
1638
870
2025
849
1686
1482
972
2004
804
1728
1323
1116
1911
777
1941
1092
1281
1791
780
2004
1035
1431
1686
768
2061
945
1620
1536
924
2007
885
1608
1416
1056
1956
804
1890
1224
1143
1836
789
1953
1086
1377
1848
615
2043
978
1560
1587
876
2067
912
1716
1410
1011
1980
858
1815
1269
1152
1890
708
1965
1161
1254
1794
744
2025
969
1488
1680
846
2055
918
1662
1524
912
2019
852
1809
1338
1086
1878
810
1914
1164
1230
1797
816
1980
1071
1413
1695
858
1944
924
1602
1563
903
2064
837
1746
1395
1032
1965
804
1941
1224
1176
1857
801
1905
1104
1359
1734
783
2016
984
1563
1539
897
2076
891
1695
1455
981
2025
792
1851
1296
1101
1896
759
1905
1155
1293
1755
774
1971
981
1479
1665
846
2070
897
1617
1527
909
1992
873
1740
1350
1053
1941
759
1902
1200
1203
1818
822
1851
1113
1374
1659
813
2031
942
1590
1554
873
2004
873
1641
1449
993
1998
822
1851
1239
1146
1866
780
2013
1005
1305
1776
762
1992
1020
1488
1632
846
2013
903
1683
1464
957
1965
828
1818
1302
1074
1914
771
1944
1161
1185
1779
687
2016
1062
1413
1701
807
2037
945
1629
1527
945
1998
873
1761
1353
1026
1959
807
1887
1233
1164
1902
702
1986
1065
1362
1716
792
2019
978
1566
1623
840
2034
882
1707
1425
963
1989
810
1848
1263
1089
1890
801
1926
1137
1263
1782
801
1941
1032
1479
1656
858
2013
918
1662
1518
981
2025
825
1815
1377
1062
1896
801
1911
1185
1212
1815
768
1989
1032
1407
1719
801
2019
960
1566
1581
912
2013
873
1743
1434
993
1965
855
1794
1263
1179
1848
783
1962
1068
1344
1728
768
2031
1008
1479
1578
873
2019
912
1680
1470
1002
1986
855
1830
1314
1032
1893
786
1938
1155
1236
1809
780
2025
951
1497
1623
828
2034
930
1638
1518
921
2007
867
1746
1428
963
2010
705
1929
1230
1197
1833
789
1971
1011
1371
1710
831
1971
978
1575
1611
816
2010
981
1629
1452
1002
1953
825
1830
1248
1116
1788
765
1968
1098
1311
1740
792
2019
975
1503
1611
894
2019
906
1659
1527
972
2004
795
1833
1296
1089
1911
792
1938
1128
1242
1845
738
1899
1053
1425
1659
810
2034
945
1587
1569
903
2079
843
1773
1395
999
1956
798
1881
1233
1188
1845
807
1983
1044
1323
1737
792
2031
900
1563
1599
900
2001
963
1644
1449
999
1977
825
1824
1293
1116
1875
774
1926
1122
1284
1731
813
1998
1038
1473
1632
864
1941
924
1674
1542
918
2016
840
1788
1344
1056
1881
792
1950
1188
1230
1824
768
1944
1068
1407
1701
813
2079
852
1542
1608
945
1989
909
1725
1392
1011
1893
834
1899
1185
1188
1830
765
1953
1086
1350
1743
783
1995
996
1536
1593
849
2106
849
1704
1443
960
1968
831
1824
1299
1092
1896
795
1920
1107
1293
1785
798
1998
1011
1458
1662
864
1968
903
1629
1500
906
1998
873
1797
1311
1062
1950
798
1908
1218
1215
1818
846
1941
1065
1383
1710
807
2025
960
1551
1569
924
2016
849
1746
1431
1002
1971
801
1854
1269
1182
1878
774
1953
1149
1314
1755
756
1974
1053
1503
1647
855
2034
879
1701
1434
978
1977
828
1773
1335
1080
1905
777
1905
1152
1182
1791
786
2043
1050
1440
1737
756
2022
924
1638
1533
942
2007
846
1779
1365
1047
1890
825
1902
1215
1209
1821
801
1977
1062
1374
1644
804
2052
942
1536
1617
867
2010
894
1731
1383
978
1995
825
1857
1266
1140
1839
783
1956
1119
1311
1731
756
2010
1008
1500
1629
876
2016
897
1680
1521
924
1980
879
1806
1296
1089
1905
792
1935
1260
1143
1791
783
1992
1047
1374
1680
825
1998
963
1587
1548
891
2028
876
1752
1374
1047
1947
795
1884
1191
1194
1866
660
1992
1098
1365
1740
819
1971
987
1593
1524
918
2019
888
1734
1368
1044
1986
774
1848
1263
999
1842
777
1968
1143
1284
1752
825
2010
987
1446
1644
873
2013
930
1584
1512
951
2034
768
1815
1344
1083
1914
690
1938
1191
1221
1818
756
1947
1053
1428
1695
816
2082
885
1614
1557
921
2001
870
1770
1308
1071
1974
810
1869
1236
1191
1737
819
1971
1101
1347
1722
843
1947
987
1512
1593
861
2028
867
1707
1458
942
1959
855
1848
1296
1098
1863
774
1923
1146
1293
1773
810
1956
1023
1461
1668
816
2025
927
1578
1536
954
1965
867
1782
1362
1107
1875
801
1905
1197
1266
1710
765
2004
1077
1401
1698
783
2064
954
1587
1548
924
1959
870
1719
1413
1032
1914
828
1899
1224
1158
1830
777
1989
1041
1350
1758
783
1989
999
1527
1581
867
2043
996
1548
1476
996
1986
834
1836
1311
1104
1899
738
1845
1125
1248
1770
783
2049
993
1452
1668
837
2031
924
1497
1539
963
1974
861
1755
1359
1050
1935
834
1815
1224
1206
1830
810
1923
1095
1395
1710
795
2022
960
1524
1590
909
2007
882
1671
1428
1032
1968
816
1911
1212
1158
1857
774
1950
1125
1287
1764
798
2010
1002
1473
1590
882
2016
906
1719
1407
978
1983
900
1698
1317
1158
1908
801
1902
1233
1224
1788
783
2019
951
1476
1656
840
2019
939
1644
1533
942
1968
870
1752
1380
1077
1941
801
1887
1218
1164
1854
738
2007
1044
1380
1689
813
2034
981
1518
1578
876
2016
870
1755
1389
1074
1953
873
1830
1269
1164
1860
744
1965
1134
1317
1713
777
1974
1032
1533
1611
888
2052
843
1671
1476
990
1947
846
1794
1383
1065
1890
780
1929
1116
1263
1812
735
1980
1017
1416
1677
831
2052
918
1629
1521
927
1905
873
1800
1344
1050
1920
798
1920
1203
1212
1809
798
1947
1110
1344
1713
768
1986
987
1575
1569
921
1941
900
1728
1404
1023
1965
768
1851
1257
1149
1866
702
1971
1125
1320
1758
744
2031
1032
1518
1635
867
1974
939
1680
1482
966
2001
783
1827
1302
1080
1866
810
1890
1173
1263
1785
843
1944
1035
1449
1671
936
1914
927
1644
1527
945
2001
849
1782
1383
1041
1941
774
1908
1119
1191
1845
789
1962
1080
1377
1722
780
2013
1002
1488
1611
894
2010
903
1695
1455
1002
2004
789
1851
1284
1200
1809
744
1953
1092
1314
1755
744
2031
1008
1515
1635
825
2031
939
1719
1437
954
2004
864
1794
1326
1104
1911
792
1869
1176
1203
1791
828
1998
1041
1440
1626
858
2001
909
1620
1509
957
2034
843
1764
1362
1059
1935
858
1839
1221
1227
1830
711
1959
1080
1386
1695
828
1929
975
1596
1491
918
2019
900
1653
1443
1014
1962
822
1866
1170
1197
1839
750
1932
1143
1311
1746
783
2001
993
1521
1614
843
2028
855
1689
1479
990
1968
849
1779
1233
1122
1884
777
1932
1080
1281
1770
780
1851
1059
1473
1656
843
1998
969
1617
1503
966
2004
846
1779
1359
1059
1935
798
1902
1275
1161
1890
711
1938
1077
1392
1689
831
1995
888
1611
1563
921
1983
840
1740
1407
1008
1968
798
1860
1290
1167
1857
798
1929
1098
1323
1746
780
1989
996
1503
1584
891
2046
891
1689
1494
984
2001
786
1845
1308
1098
1890
852
1851
1170
1212
1800
786
1941
1038
1455
1665
870
1995
960
1605
1539
951
2004
855
1761
1353
1074
1902
864
1821
1227
1212
1812
798
1926
1074
1395
1701
801
2052
921
1566
1584
909
2013
888
1695
1440
1017
1956
840
1872
1203
1170
1860
774
1968
1116
1266
1755
792
1998
1005
1503
1665
837
2034
891
1686
1488
1008
1833
891
1836
1311
1107
1893
795
1836
1071
1299
1779
789
1995
1038
1464
1629
840
2013
930
1626
1530
960
1908
873
1767
1368
1059
1938
846
1821
1209
1212
1821
807
1863
1089
1386
1710
801
2025
987
1482
1602
921
2028
810
1716
1422
1026
1968
819
1761
1284
1164
1860
813
1911
1149
1299
1794
747
2013
1062
1422
1614
864
2028
909
1635
1479
945
2007
837
1788
1344
1086
1917
801
1953
1134
1239
1770
792
1998
1041
1434
1656
885
2061
918
1632
1530
942
1998
864
1740
1368
1065
1920
765
1920
1200
1212
1851
771
1977
1074
1347
1713
810
1998
1020
1527
1614
876
2031
903
1671
1440
1005
1971
825
1788
1302
1143
1875
813
1932
1077
1317
1746
774
2004
1032
1512
1605
837
2022
864
1692
1467
978
1962
804
1845
1254
1026
1920
735
1941
1161
1248
1764
771
2013
1035
1431
1668
804
1968
930
1641
1551
876
2001
888
1749
1332
1077
1968
756
1896
1203
1233
1800
765
2040
1059
1425
1683
801
2049
930
1623
1557
933
2025
846
1755
1452
972
1968
792
1845
1254
1179
1851
789
1974
1116
1332
1731
813
2028
1035
1470
1608
861
2052
891
1689
1461
975
1980
870
1812
1221
1140
1905
735
1938
1152
1260
1815
714
2019
1029
1461
1656
789
1989
900
1647
1536
930
1995
855
1758
1344
1074
1932
795
1896
1152
1239
1794
777
1992
1041
1395
1674
849
1995
996
1599
1581
936
1974
870
1749
1386
1035
1959
792
1821
1257
1131
1881
786
1977
1131
1305
1698
810
1986
987
1551
1602
891
1989
936
1722
1479
1002
1962
759
1845
1281
1107
1869
804
1935
1179
1266
1779
795
1965
1053
1470
1647
807
2046
951
1611
1527
936
1995
891
1668
1353
1068
1908
786
1911
1158
1227
1818
732
1950
1080
1422
1671
774
2055
903
1659
1497
912
1995
876
1725
1410
1047
1989
756
1854
1230
1170
1812
744
2028
1008
1383
1707
771
2019
984
1527
1620
819
2043
906
1668
1473
1029
1953
858
1854
1269
1077
1875
828
1983
1125
1296
1761
789
1986
1041
1437
1656
873
1953
888
1698
1488
924
1956
819
1845
1296
1071
1968
681
1944
1179
1257
1713
795
2007
1035
1443
1674
828
2043
900
1605
1533
924
1944
897
1725
1371
1044
1938
870
1839
1230
1257
1797
771
1947
1062
1383
1710
816
1977
954
1575
1575
927
1956
906
1704
1410
1017
1968
858
1773
1287
1140
1818
771
1968
1113
1335
1734
792
2007
960
1545
1587
888
2007
915
1668
1428
1017
1926
795
1842
1293
1077
1896
789
1920
1155
1257
1767
792
1983
1068
1413
1692
867
2049
948
1593
1512
945
2007
798
1794
1320
1065
1923
777
1839
1200
1215
1725
801
1986
1083
1389
1698
822
1971
960
1635
1536
918
2037
906
1767
1368
978
1935
804
1893
1227
1173
1815
807
1998
1077
1371
1710
804
2013
975
1560
1596
816
2052
861
1704
1464
966
1986
810
1848
1272
1191
1872
792
1968
1116
1266
1776
786
1995
1014
1515
1599
822
2034
921
1695
1488
951
2016
840
1809
1317
1059
1869
777
1938
1182
1227
1809
777
2034
1020
1431
1710
801
1983
951
1605
1545
924
2004
906
1614
1410
1044
1941
819
1905
1215
1173
1848
780
1974
987
1368
1734
786
2052
963
1530
1614
882
2028
885
1713
1392
957
1977
846
1872
1269
1128
1842
798
1980
1131
1284
1770
792
2064
966
1488
1629
846
2037
918
1638
1512
969
1989
840
1800
1317
1065
1980
756
1917
1221
1236
1803
771
1977
1044
1398
1698
810
1974
942
1602
1551
915
2001
879
1755
1368
1065
1950
828
1827
1278
1152
1845
792
1944
1110
1353
1770
693
2043
969
1584
1596
888
2001
888
1707
1419
1026
1965
789
1893
1227
1161
1857
789
1944
1128
1314
1740
762
2007
1014
1497
1629
879
2010
924
1689
1422
987
1905
852
1800
1239
1119
1881
771
1854
1155
1269
1824
780
2016
1032
1467
1674
780
2028
912
1662
1488
936
2007
867
1779
1353
1059
1881
786
1929
1107
1254
1830
780
1974
1056
1425
1632
816
2052
939
1605
1548
954
1992
870
1764
1377
1011
1899
804
1911
1200
1131
1872
777
1953
1077
1371
1722
792
2022
948
1590
1614
855
1962
900
1779
1377
1002
1959
828
1839
1227
1119
1875
792
1920
1152
1323
1752
798
1995
1029
1479
1620
897
2019
840
1689
1461
975
1971
822
1833
1293
1089
1887
801
1929
1152
1275
1773
768
1980
1038
1467
1680
828
2025
930
1644
1503
975
1995
852
1779
1317
1098
1896
798
1869
1218
1260
1827
783
1983
1065
1407
1695
810
2037
981
1617
1488
942
2028
885
1710
1404
1023
1953
810
1872
1245
1140
1833
780
1989
1080
1350
1794
678
2055
987
1530
1623
789
2019
906
1701
1437
978
1974
780
1881
1293
1122
1887
780
1923
1146
1272
1761
774
2016
1035
1458
1629
885
2013
915
1665
1485
969
1842
879
1827
1311
1089
1911
699
1920
1170
1263
1782
783
2019
945
1482
1680
831
2025
933
1611
1479
969
2001
846
1782
1410
981
1950
819
1917
1224
1170
1797
801
1992
1059
1404
1683
801
2016
948
1617
1569
933
1998
867
1758
1359
1020
1947
819
1914
1224
1167
1842
804
1989
1083
1383
1764
675
2043
981
1584
1572
897
2022
876
1725
1398
951
1974
801
1893
1230
1110
1851
783
1956
1125
1317
1770
747
2022
975
1554
1629
882
2022
879
1740
1422
1014
1947
852
1815
1236
1128
1887
771
1956
1113
1272
1788
846
1962
1017
1536
1635
840
2028
906
1695
1530
987
1944
849
1821
1296
1059
1926
768
1920
1149
1260
1818
777
1992
987
1461
1665
855
2010
960
1662
1479
984
1884
855
1797
1347
1047
1902
765
1899
1227
1203
1809
777
1989
1056
1413
1683
765
2019
957
1557
1527
936
2025
831
1779
1380
1062
1932
876
1857
1218
1209
1770
798
1989
1083
1395
1689
795
2046
933
1548
1515
942
2037
828
1737
1434
972
1980
771
1872
1248
1134
1872
789
1974
1134
1302
1758
780
2037
990
1560
1596
876
2034
906
1677
1488
987
2016
789
1839
1254
1122
1851
777
1950
1140
1296
1749
753
2022
1014
1449
1638
849
2049
918
1629
1500
918
1956
852
1845
1281
1071
1950
783
1920
1164
1260
1734
777
1989
1026
1488
1647
813
2010
939
1647
1524
939
2013
837
1767
1353
1035
1887
750
1959
1161
1218
1779
780
1998
1062
1416
1707
837
2025
894
1620
1566
915
1998
885
1794
1377
978
1962
705
1887
1182
1185
1833
774
1959
1116
1314
1722
819
2022
978
1602
1575
906
2016
888
1743
1374
1026
1959
756
1839
1257
1155
1860
771
1962
1050
1341
1680
798
2046
990
1536
1680
768
2022
900
1710
1449
993
1989
786
1851
1239
1110
1893
759
1968
1116
1323
1752
786
2013
1044
1386
1662
882
2034
894
1668
1497
951
2028
768
1842
1365
1035
1944
771
1959
1164
1242
1773
762
2043
993
1470
1683
813
2037
927
1701
1401
984
2007
846
1779
1311
1089
1947
747
1929
1206
1200
1809
777
2007
1083
1440
1668
846
2010
960
1545
1560
897
2010
849
1779
1338
1029
1983
753
1896
1242
1203
1770
795
1980
1086
1425
1674
804
2028
951
1560
1584
927
1881
930
1731
1416
1008
1953
840
1830
1269
1155
1863
774
1971
1086
1314
1725
795
2019
975
1521
1605
762
2082
918
1686
1455
972
2004
807
1833
1263
1131
1866
774
1947
1137
1311
1773
774
2001
1032
1497
1632
855
2025
960
1557
1530
999
1998
843
1800
1311
1062
1899
783
1932
1170
1266
1800
780
2010
1047
1455
1626
831
2049
927
1626
1551
822
2040
855
1791
1344
1047
1923
774
1890
1200
1248
1776
756
1989
1068
1425
1683
834
2049
945
1584
1587
912
2040
834
1761
1392
1053
1929
777
1788
1251
1209
1869
726
1986
1092
1383
1764
720
2022
981
1539
1596
885
1998
897
1719
1389
1020
1965
822
1848
1242
1161
1845
777
1944
1122
1365
1707
753
2004
969
1518
1569
921
2007
906
1716
1419
1008
1977
840
1857
1221
1155
1872
747
1956
1125
1311
1740
819
2004
996
1566
1548
879
2013
906
1695
1449
987
1992
816
1839
1269
1167
1821
771
1947
1149
1284
1746
786
2013
1014
1476
1647
846
1980
942
1665
1452
975
1983
825
1821
1323
1089
1902
720
1959
1212
1203
1785
768
2019
1026
1431
1662
819
2046
933
1614
1524
951
1917
852
1827
1317
1074
1926
774
1914
1095
1245
1800
813
1941
1065
1425
1674
813
2037
930
1536
1548
936
1998
897
1743
1398
1026
1953
837
1905
1221
1218
1800
774
2004
1089
1410
1725
822
2052
912
1593
1575
897
2055
849
1761
1362
1050
1929
777
1875
1251
1173
1857
753
1959
1089
1335
1683
825
2016
1005
1521
1599
873
2013
888
1734
1428
1041
1935
813
1872
1278
1056
1890
753
1962
1113
1338
1776
693
2037
1011
1545
1644
825
2037
891
1659
1449
990
1953
813
1893
1203
1146
1875
783
1881
1131
1296
1743
753
2040
996
1473
1632
870
2016
921
1689
1476
993
1956
828
1830
1296
1101
1911
783
1947
1134
1314
1713
777
2013
1002
1530
1593
855
2049
918
1635
1473
975
1953
846
1842
1323
1050
1896
807
1941
1143
1302
1779
771
2040
909
1518
1632
834
2007
909
1671
1485
999
1968
822
1809
1308
1089
1905
780
1962
1155
1236
1788
786
2031
945
1470
1692
831
1998
927
1644
1509
948
1995
906
1689
1371
1083
1944
783
1923
1170
1242
1785
777
2004
1041
1443
1596
810
1998
948
1620
1542
885
2022
837
1749
1323
1098
1878
801
1938
1257
1134
1806
786
1953
1035
1377
1707
813
2049
894
1632
1530
945
2001
846
1758
1356
975
1980
735
1863
1236
1206
1833
804
1965
1086
1392
1704
807
1989
948
1584
1533
942
1998
885
1761
1362
1020
1947
813
1887
1227
1161
1815
786
1935
1098
1362
1695
786
2010
975
1581
1611
900
1995
879
1770
1353
1023
1983
774
1866
1251
1152
1860
771
1983
1020
1371
1734
792
2031
963
1554
1560
876
2022
885
1725
1344
1047
1935
828
1857
1233
1131
1857
783
1971
1077
1356
1737
750
2016
894
1554
1617
888
1998
888
1713
1434
969
1986
810
1857
1212
1125
1878
771
1944
1104
1320
1746
810
1989
978
1560
1500
909
2007
900
1689
1452
984
1971
831
1818
1248
1086
1872
807
1932
1140
1317
1731
786
2001
1005
1488
1641
837
2019
936
1650
1473
1023
1941
834
1791
1278
1122
1875
825
1863
1155
1263
1773
807
2013
990
1503
1623
858
2061
867
1671
1488
981
1983
819
1845
1272
1086
1890
744
1953
1164
1239
1794
786
2058
981
1521
1617
855
2019
912
1659
1473
1005
1944
834
1815
1308
1122
1890
762
1941
1143
1227
1773
828
1908
1047
1485
1647
819
2019
912
1641
1512
954
1995
822
1830
1278
1071
1914
795
1941
1158
1167
1800
780
1989
1023
1458
1671
873
1965
918
1659
1515
897
2001
816
1800
1350
1071
1896
771
1932
1164
1215
1791
819
1980
1038
1437
1689
828
2016
945
1635
1542
948
2037
846
1782
1347
1071
1926
774
1929
1188
1221
1848
714
2016
1053
1434
1671
789
2040
921
1614
1515
939
1989
864
1734
1356
1071
1890
807
1935
1191
1245
1776
789
2007
993
1431
1692
804
2055
936
1587
1527
909
1980
840
1785
1326
1065
1878
774
1914
1212
1155
1818
750
1986
1029
1407
1680
858
2046
894
1623
1515
939
1998
861
1779
1356
1053
1959
795
1899
1158
1230
1836
765
1977
1068
1398
1710
828
1998
921
1605
1536
936
1974
870
1779
1350
1035
1947
804
1860
1176
1233
1806
780
1989
1050
1401
1701
804
2031
987
1512
1530
888
2037
876
1746
1392
981
1911
807
1899
1215
1185
1767
786
1971
1026
1395
1734
792
1965
987
1584
1557
915
2010
918
1707
1401
1059
1962
753
1881
1233
1104
1836
825
1929
1083
1362
1698
762
2043
954
1548
1581
906
1974
888
1791
1362
1032
1986
783
1887
1224
1167
1824
804
1971
1062
1314
1758
783
2025
954
1554
1572
900
2022
858
1680
1380
1008
1992
819
1860
1224
1152
1872
759
1968
1083
1380
1755
783
1983
984
1542
1605
882
1971
885
1728
1398
1002
1983
858
1833
1260
1170
1848
756
1977
1098
1326
1752
786
2022
993
1587
1533
897
2022
894
1677
1398
999
1983
828
1827
1263
1140
1869
768
1968
1137
1302
1755
747
1965
1014
1533
1572
870
2028
894
1728
1410
975
1989
801
1875
1227
1128
1887
765
1959
1080
1305
1758
789
2049
993
1527
1647
801
2007
891
1689
1455
966
2034
807
1839
1284
1131
1836
762
1968
1107
1302
1743
753
2016
1020
1488
1647
879
2013
903
1725
1440
978
1995
792
1839
1284
1116
1857
798
1935
1146
1275
1809
786
2028
996
1506
1638
810
2028
903
1692
1509
948
2004
843
1824
1308
1125
1875
795
1926
1158
1317
1779
753
2040
1011
1458
1671
864
2010
870
1698
1491
927
1995
846
1875
1284
1083
1902
801
1890
1062
1266
1803
756
2025
966
1443
1686
831
2019
975
1650
1479
951
1977
846
1821
1347
1086
1914
777
2007
1119
1269
1785
810
1944
1080
1404
1668
810
2034
930
1683
1446
948
2001
867
1713
1380
1011
1938
783
1923
1170
1293
1755
780
2001
1035
1446
1677
840
2049
921
1629
1524
999
1929
849
1785
1374
1053
1926
792
1932
1194
1224
1791
801
1959
999
1458
1668
825
2073
900
1620
1533
936
1992
870
1764
1365
1074
1944
756
1923
1203
1221
1776
780
2013
1041
1383
1692
801
2013
948
1596
1602
843
1995
861
1767
1377
1047
1890
822
1869
1194
1194
1785
816
1956
1074
1377
1692
798
2043
945
1605
1560
915
1983
843
1758
1410
1032
1947
843
1851
1221
1179
1773
777
2016
1071
1350
1734
795
2052
906
1614
1560
909
1998
915
1725
1416
1035
1935
843
1881
1218
1155
1845
795
1962
1065
1365
1686
801
2040
966
1527
1572
903
2007
867
1686
1413
1008
1965
792
1899
1212
1149
1866
777
1983
1116
1371
1716
813
2031
942
1572
1599
882
2031
882
1722
1374
1041
1947
837
1848
1242
1170
1830
750
1962
1074
1362
1743
783
2040
951
1545
1602
909
2004
864
1686
1425
1014
1974
825
1878
1227
1146
1884
756
1992
1089
1350
1713
795
2004
1008
1539
1590
861
2034
882
1728
1416
990
1983
795
1878
1260
1140
1878
774
1926
1119
1335
1725
786
2040
1005
1566
1569
909
2043
891
1698
1437
999
1968
813
1851
1212
1152
1923
723
1971
1122
1308
1749
750
2034
993
1506
1599
873
2034
900
1650
1452
978
1992
825
1830
1323
1098
1896
756
1947
1143
1278
1812
744
2028
975
1479
1653
879
2028
921
1605
1494
990
1977
858
1833
1296
1128
1911
804
1944
1170
1284
1797
711
2004
1029
1494
1644
900
1953
912
1665
1443
939
1977
825
1767
1329
1110
1935
738
1950
1080
1275
1800
783
1983
1014
1440
1680
876
2010
933
1656
1521
912
1995
873
1839
1338
1065
1893
780
1923
1161
1242
1809
774
1986
1017
1476
1641
843
2028
912
1638
1542
900
1992
852
1815
1350
1059
1932
798
1884
1164
1227
1827
750
2040
1041
1440
1653
816
2034
933
1620
1503
1008
1905
903
1752
1332
1026
1941
789
1899
1212
1209
1815
786
1923
1113
1413
1704
798
2016
963
1608
1560
855
2025
846
1770
1383
1014
1953
789
1893
1242
1170
1809
801
2028
1041
1413
1695
783
2028
963
1584
1557
888
2046
792
1773
1380
1002
1977
798
1881
1191
1188
1842
747
1980
1071
1422
1686
792
2019
972
1566
1587
891
2034
849
1734
1416
1017
1974
810
1875
1227
1128
1857
822
1911
1104
1383
1716
765
2034
990
1584
1533
915
2001
921
1752
1416
990
1947
783
1896
1239
1158
1908
801
1968
1101
1347
1698
768
2022
981
1587
1584
900
1959
888
1737
1407
999
1992
783
1884
1221
1176
1851
822
1929
1128
1311
1749
780
1980
999
1524
1617
822
2034
876
1692
1470
1011
1959
843
1851
1260
1110
1839
777
1944
1167
1278
1806
735
2013
993
1500
1632
849
2016
903
1656
1455
978
1941
888
1710
1272
1119
1866
771
1956
1119
1299
1782
771
2019
1014
1569
1557
867
2034
903
1683
1479
951
2004
783
1824
1320
1092
1899
783
1974
1125
1281
1782
729
2013
1035
1443
1659
849
2019
885
1704
1446
981
2013
825
1803
1311
1086
1947
753
1950
1164
1326
1677
789
2034
999
1458
1671
837
2028
927
1629
1446
984
1986
810
1824
1335
1113
1908
789
1905
1176
1224
1806
780
2013
1011
1506
1611
813
2034
894
1617
1521
939
2007
846
1779
1254
1092
1926
750
1935
1188
1230
1794
783
2004
1050
1416
1689
807
2058
945
1584
1518
969
1995
831
1791
1353
1065
1944
834
1857
1164
1221
1833
768
2001
1056
1443
1614
816
2025
945
1638
1533
948
1989
888
1680
1353
1065
1944
786
1899
1221
1209
1824
768
1986
1080
1401
1734
807
2007
957
1587
1539
864
2028
927
1698
1377
1065
1962
756
1887
1224
1188
1815
780
1974
1098
1374
1701
804
2031
921
1578
1638
855
2031
894
1740
1404
1026
1965
849
1842
1233
1170
1872
816
1902
1122
1359
1734
792
1959
987
1533
1605
891
2013
888
1704
1425
954
1929
837
1866
1281
1125
1854
786
1971
1122
1404
1674
783
2040
1008
1524
1596
867
2007
888
1704
1464
987
1965
921
1782
1248
1140
1854
777
1947
1083
1320
1752
801
2001
1008
1515
1647
828
2022
837
1722
1458
1023
1968
822
1842
1287
1101
1875
786
1947
1080
1347
1701
780
2022
999
1539
1599
870
2028
897
1683
1398
996
1974
894
1851
1275
1116
1869
783
1944
1143
1278
1791
741
2004
1044
1494
1665
822
2061
915
1674
1461
972
1989
816
1836
1275
1143
1872
798
1917
1170
1242
1767
783
2031
969
1491
1668
819
2070
909
1644
1491
963
2004
801
1815
1359
1053
1923
759
1959
1056
1257
1791
777
2061
942
1476
1659
843
2007
891
1704
1446
966
1989
885
1773
1320
1104
1929
732
1932
1167
1221
1803
726
2001
1014
1440
1689
840
1977
942
1632
1509
927
1932
864
1806
1344
1074
1917
789
1917
1128
1251
1752
792
2001
1098
1368
1632
834
2037
918
1626
1518
906
1944
879
1770
1344
1077
1908
777
1923
1206
1209
1788
834
1956
1068
1407
1641
825
2031
924
1599
1545
996
1908
852
1806
1395
972
1941
783
1917
1203
1176
1830
780
1995
1044
1416
1698
828
2022
1011
1542
1530
894
2043
789
1770
1389
1035
1935
771
1881
1212
1200
1914
675
2034
1074
1389
1737
774
2016
984
1560
1563
900
2031
822
1734
1377
1041
1881
783
1875
1230
1170
1842
762
1971
1053
1395
1728
804
2028
966
1557
1560
906
2001
909
1704
1422
996
1944
816
1875
1239
1149
1869
777
1941
1128
1326
1692
831
1995
975
1557
1602
900
1986
852
1731
1419
1032
1944
885
1755
1242
1164
1863
759
1968
1068
1341
1722
792
2043
1029
1503
1584
912
1989
897
1710
1425
990
1998
810
1800
1257
1185
1827
795
1974
1095
1314
1758
801
1998
960
1533
1608
906
2028
888
1689
1455
972
1926
831
1836
1299
1152
1788
798
1959
1137
1362
1725
771
2010
984
1515
1650
813
1989
912
1686
1446
1014
2004
849
1851
1257
1107
1887
771
1938
1179
1197
1794
681
2025
1008
1488
1650
855
2016
906
1635
1482
984
1953
771
1830
1326
1149
1908
762
1935
1161
1230
1734
798
2019
1032
1506
1620
834
2004
912
1644
1509
960
1932
840
1803
1365
1092
1911
771
1914
1119
1269
1776
798
1995
984
1446
1668
834
2043
921
1683
1479
984
1998
834
1815
1365
1050
1950
771
1902
1161
1197
1806
798
1968
1065
1407
1614
837
2022
957
1578
1521
957
1992
867
1629
1362
1062
1887
807
1911
1185
1182
1821
783
1971
1047
1359
1725
807
2046
969
1569
1581
900
1992
876
1824
1323
1068
1926
792
1815
1203
1215
1821
768
1992
1095
1350
1722
789
2058
930
1611
1581
822
2010
888
1785
1368
1050
1983
720
1908
1215
1185
1746
792
2007
1065
1383
1710
831
2031
957
1578
1560
894
2085
909
1695
1398
1038
1944
816
1890
1203
1185
1836
804
1956
1071
1413
1704
774
2022
984
1560
1569
921
2001
867
1698
1437
1056
1944
813
1902
1215
1149
1812
804
1965
1086
1365
1710
816
1992
984
1575
1554
912
2004
903
1731
1404
1014
1971
822
1872
1134
1188
1878
756
1995
1011
1392
1722
840
2016
1014
1512
1587
918
1956
861
1788
1374
1050
1950
780
1875
1209
1161
1842
780
1992
1074
1326
1710
768
2040
1008
1563
1599
909
1992
897
1713
1392
957
1989
846
1818
1215
1152
1869
816
1998
1038
1353
1713
807
2007
1020
1485
1611
771
2031
825
1725
1458
954
1986
825
1845
1257
1134
1848
807
1974
996
1359
1779
798
1998
1026
1521
1620
858
2079
819
1590
1506
1005
1968
822
1818
1287
1134
1887
807
1941
1143
1293
1749
780
2013
1026
1503
1611
819
2043
894
1680
1425
993
2013
795
1827
1305
1077
1914
819
1854
1158
1281
1716
792
2013
1008
1485
1659
858
2001
993
1605
1563
903
2019
813
1827
1329
1077
1887
816
1959
1074
1275
1812
789
1992
1020
1449
1668
831
2046
918
1671
1443
948
2010
819
1782
1332
1065
1917
753
1926
1233
1167
1821
771
1977
1017
1437
1665
807
2031
945
1617
1554
903
2022
858
1797
1326
1059
1974
744
1920
1224
1197
1833
750
1995
1077
1410
1668
768
2049
921
1605
1581
870
2019
885
1791
1368
1011
1770
834
1917
1179
1191
1818
765
1989
1056
1413
1653
765
2028
972
1554
1599
882
2049
879
1731
1398
1041
1944
789
1902
1185
1224
1881
690
1992
1089
1380
1713
792
2034
948
1575
1578
933
1923
867
1740
1416
1014
1971
777
1896
1230
1170
1836
705
2031
1014
1371
1752
786
2061
948
1566
1554
897
2013
822
1731
1407
978
1992
720
1881
1269
1146
1845
771
1992
1002
1368
1713
753
2016
966
1557
1557
882
2088
774
1716
1452
939
1989
783
1821
1275
1152
1863
783
1977
1131
1299
1722
798
2052
966
1581
1587
882
2049
891
1710
1476
879
2037
831
1830
1182
1143
1878
759
1956
1125
1275
1731
777
2031
1011
1509
1656
840
2040
891
1698
1398
981
1995
804
1845
1188
1122
1917
762
1875
1152
1281
1776
741
2040
987
1467
1641
846
2028
939
1632
1518
948
2028
858
1776
1260
1032
1929
777
1965
1125
1263
1782
780
1998
1023
1482
1686
783
2046
903
1698
1473
900
2061
861
1830
1296
1074
1914
792
1923
1137
1260
1797
759
2037
1065
1392
1656
837
2040
927
1626
1524
861
2004
843
1800
1347
1125
1908
801
1881
1191
1203
1830
774
1968
1047
1446
1647
819
2025
951
1605
1545
831
2010
858
1773
1356
1020
1944
867
1896
1182
1221
1809
780
1983
1134
1302
1677
810
1938
960
1605
1533
900
1968
876
1752
1377
1086
1827
789
1908
1227
1158
1839
747
1983
1083
1395
1626
840
2034
969
1521
1566
903
2043
873
1680
1413
1020
1965
789
1875
1239
1125
1866
762
1911
1110
1374
1713
798
2025
978
1560
1596
885
1995
903
1611
1434
1005
1986
774
1881
1257
1149
1896
765
2007
1101
1332
1725
780
2022
996
1545
1611
876
1980
894
1761
1383
1032
2001
786
1866
1263
1140
1917
765
1977
1131
1317
1719
816
2013
1002
1533
1608
840
2073
876
1704
1461
957
2004
834
1815
1278
1113
1830
762
1965
1128
1287
1776
735
2043
1026
1479
1584
840
2058
888
1677
1458
966
2037
843
1782
1332
981
1920
762
1968
1122
1290
1746
792
2013
885
1530
1650
846
2031
927
1650
1479
972
2010
816
1863
1257
1095
1896
765
1968
1152
1281
1776
804
1974
1002
1521
1545
867
2076
855
1692
1467
957
1995
831
1830
1296
1098
1905
807
1923
1131
1290
1797
777
2022
999
1485
1653
837
2043
921
1653
1500
951
2013
849
1788
1317
1083
1911
771
1944
1152
1245
1800
753
2010
1017
1467
1653
822
2100
840
1659
1515
942
2007
837
1812
1314
1068
1935
768
1935
1173
1233
1803
756
1998
1044
1440
1683
807
2049
921
1611
1524
936
2016
816
1800
1344
1050
1935
777
1914
1179
1209
1803
753
2004
1053
1416
1695
804
2040
930
1608
1539
918
2013
858
1764
1365
1041
1947
786
1905
1203
1197
1809
762
1995
1068
1395
1701
792
2043
921
1584
1557
903
2004
864
1752
1383
1026
1947
798
1899
1206
1179
1839
774
1983
1089
1362
1719
846
1953
960
1599
1563
894
2010
870
1746
1380
1029
1950
789
1890
1221
1182
1839
777
1974
1065
1362
1716
801
2031
963
1563
1569
900
2007
870
1737
1392
1017
1962
807
1863
1236
1164
1815
783
1962
1092
1347
1728
792
2016
978
1548
1590
897
2010
882
1719
1416
1011
1962
819
1860
1245
1152
1854
774
1965
1107
1335
1740
786
2022
1005
1512
1608
891
2004
894
1698
1428
1002
1968
822
1839
1263
1134
1860
777
1944
1131
1305
1749
789
2004
993
1509
1614
870
2019
903
1680
1449
984
1974
834
1827
1278
1119
1875
786
1935
1143
1278
1755
774
2004
1008
1467
1647
849
2019
918
1650
1485
966
1986
849
1800
1308
1098
1890
789
1911
1173
1254
1785
777
1983
1038
1449
1659
840
2022
921
1623
1518
948
1974
855
1785
1335
1062
1917
789
1908
1188
1215
1797
786
1980
1053
1413
1686
825
2007
951
1596
1539
930
2001
870
1758
1374
1041
1929
813
1884
1212
1188
1824
777
1974
1077
1383
1707
804
2019
960
1578
1557
921
1992
888
1731
1398
1020
1950
810
1854
1230
1170
1842
786
1953
1098
1341
1722
804
2013
981
1530
1590
891
2004
903
1713
1410
1002
1959
825
1848
1260
1131
1863
789
1941
1122
1317
1734
807
1992
1002
1518
1620
867
2001
906
1671
1455
993
1971
828
1824
1275
1110
1875
786
1929
1134
1281
1770
789
1998
1014
1488
1641
861
2016
921
1650
1488
951
1986
846
1806
1308
1095
1890
789
1917
1161
1239
1782
780
1995
1011
1434
1665
843
2019
930
1626
1509
948
1989
852
1785
1335
1077
1902
795
1908
1191
1218
1806
780
1959
1056
1416
1686
825
2013
942
1602
1542
924
1995
867
1761
1371
1050
1932
795
1875
1194
1197
1824
780
1965
1077
1398
1689
816
2013
963
1566
1557
915
2001
882
1728
1377
1029
1941
810
1872
1230
1158
1821
783
1959
1098
1347
1728
810
1998
975
1554
1584
900
1986
897
1716
1416
1017
1953
825
1845
1248
1149
1854
783
1953
1110
1320
1734
795
2013
990
1524
1590
882
2010
903
1692
1440
996
1971
837
1827
1278
1119
1866
786
1938
1146
1296
1746
771
1998
1017
1494
1632
864
2007
915
1662
1470
984
1974
840
1812
1311
1107
1878
789
1920
1161
1266
1767
783
1989
1029
1464
1650
843
2013
927
1644
1497
963
1977
849
1791
1332
1080
1902
801
1902
1179
1236
1785
786
1989
1041
1446
1659
831
2019
933
1620
1518
939
1980
855
1767
1356
1065
1923
795
1893
1197
1212
1806
777
1974
1071
1395
1689
819
2019
948
1590
1557
924
1998
873
1749
1380
1041
1932
807
1860
1221
1182
1830
789
1956
1086
1368
1710
807
2016
966
1557
1569
912
1998
888
1719
1407
1011
1947
822
1851
1245
1161
1845
789
1947
1110
1332
1725
798
2010
996
1530
1593
882
2007
900
1689
1437
1002
1959
837
1827
1272
1125
1857
792
1935
1140
1287
1752
792
1998
1017
1476
1626
861
2016
909
1662
1467
975
1971
843
1809
1290
1104
1875
798
1932
1158
1275
1755
795
1992
1020
1473
1644
852
2013
921
1641
1500
963
1977
849
1800
1317
1083
1896
792
1905
1173
1245
1782
786
1980
1041
1434
1659
837
2013
936
1617
1521
948
1980
861
1770
1344
1065
1917
801
1890
1191
1221
1788
783
1983
1050
1404
1689
825
2007
954
1587
1551
927
1983
876
1746
1389
1026
1941
810
1881
1215
1185
1830
783
1962
1086
1368
1707
810
1995
972
1557
1581
909
1998
888
1716
1410
1017
1950
822
1851
1242
1152
1839
765
1956
1110
1335
1728
801
2013
990
1542
1581
897
2001
897
1704
1422
1005
1944
825
1845
1254
1140
1848
789
1950
1116
1323
1734
798
2007
990
1533
1602
882
2007
909
1695
1437
999
1962
825
1833
1266
1137
1854
786
1938
1122
1311
1743
792
2001
1002
1527
1602
876
2013
906
1686
1449
1002
1962
828
1827
1269
1125
1863
783
1938
1140
1302
1749
789
2004
1002
1512
1608
873
2016
900
1680
1455
984
1980
831
1821
1275
1119
1869
792
1944
1119
1299
1743
789
1998
1005
1503
1623
873
2016
912
1674
1452
984
1977
840
1821
1284
1113
1872
798
1914
1146
1287
1758
795
1986
1020
1476
1629
861
2025
903
1659
1476
972
1971
852
1800
1299
1101
1884
795
1917
1164
1257
1770
786
1980
1032
1449
1653
840
2013
921
1635
1500
957
1977
861
1776
1338
1068
1908
804
1905
1182
1224
1791
789
1077
1749
1089
1686
1263
1263
1686
1014
1713
1227
1335
1653
987
1833
1134
1485
1512
1086
1776
1086
1602
1446
1083
1773
1062
1674
1326
1230
1638
1011
1767
1197
1293
1623
996
1752
1053
1479
1593
972
1809
1125
1485
1434
1170
1743
1032
1680
1317
1218
1713
1044
1719
1290
1227
1665
1074
1734
1200
1356
1584
1080
1608
1146
1575
1509
1137
1725
1059
1647
1380
1170
1812
876
1782
1284
1284
1665
1002
1653
1200
1404
1593
1017
1830
1062
1563
1497
1065
1800
1008
1620
1407
1125
1767
1032
1704
1254
1275
1707
963
1776
1221
1317
1605
1029
1812
1083
1455
1548
1059
1830
1092
1593
1431
1122
1785
1020
1680
1350
1239
1617
1044
1698
1239
1314
1704
1011
1755
1188
1452
1539
1023
1809
1059
1581
1401
1122
1788
1080
1572
1386
1158
1728
1020
1725
1254
1248
1671
1011
1821
1098
1401
1605
996
1794
1101
1509
1512
1104
1761
1113
1575
1416
1176
1767
1083
1644
1335
1200
1674
1008
1773
1038
1410
1653
963
1806
1095
1503
1530
1107
1809
1032
1614
1431
1104
1782
1035
1692
1278
1197
1776
921
1749
1251
1215
1572
1017
1851
1095
1458
1548
1053
1734
1107
1560
1467
1113
1779
1047
1551
1353
1218
1755
1032
1758
1110
1308
1686
1017
1752
1200
1410
1617
978
1722
1113
1554
1572
945
1824
1083
1563
1356
1185
1674
1020
1743
1347
1113
1674
960
1764
1176
1476
1449
1029
1887
1080
1521
1647
1074
1710
1092
1602
1440
1119
1899
831
1743
1368
1149
1692
1062
1629
1257
1374
1656
984
1815
1230
1320
1581
1068
1812
1092
1551
1428
1158
1794
1038
1761
1272
1224
1716
948
1770
1311
1260
1680
1011
1812
1152
1434
1644
1002
1857
1086
1560
1452
1173
1734
1062
1668
1395
1062
1749
1005
1752
1248
1281
1617
972
1713
1185
1434
1584
990
1824
1104
1521
1503
1086
1791
1035
1671
1458
1173
1761
1053
1662
1302
1239
1692
954
1827
1101
1356
1596
1020
1821
1050
1521
1494
1050
1854
981
1599
1395
1167
1788
1017
1647
1320
1170
1728
972
1737
1215
1347
1665
855
1857
1125
1518
1461
1047
1815
1056
1656
1350
1113
1758
975
1707
1347
1179
1725
969
1791
1188
1311
1650
996
1848
1131
1485
1572
1053
1830
1032
1584
1485
1098
1842
1068
1581
1434
1182
1743
933
1755
1257
1179
1692
936
1809
1140
1413
1584
1026
1743
1116
1614
1464
1083
1794
1026
1674
1374
1116
1743
993
1740
1254
1251
1803
831
1821
1194
1365
1602
960
1806
1170
1353
1575
1059
1782
1050
1581
1440
1128
1818
981
1728
1308
1242
1671
975
1812
1182
1260
1680
990
1851
999
1509
1515
1083
1776
1089
1605
1431
1137
1788
990
1686
1359
1086
1776
1008
1701
1275
1287
1620
981
1809
1110
1455
1488
1026
1863
1101
1584
1491
1059
1752
1071
1626
1335
1158
1785
966
1746
1272
1293
1605
990
1821
1161
1398
1563
987
1818
1074
1554
1494
1068
1842
1041
1587
1452
1113
1812
1041
1716
1296
1203
1716
984
1707
1245
1338
1536
981
1839
1098
1317
1575
1059
1815
1047
1587
1434
1146
1791
945
1707
1410
1086
1761
978
1767
1224
1347
1560
912
1818
1155
1455
1536
1005
1752
1059
1590
1467
999
1809
1035
1662
1383
1089
1752
957
1731
1293
1257
1626
972
1821
1158
1431
1554
999
1818
1071
1518
1542
978
1800
978
1644
1383
1152
1767
960
1761
1299
1218
1722
999
1779
1137
1401
1563
990
1785
1137
1494
1521
1056
1785
1029
1653
1395
1098
1785
1032
1701
1344
1173
1722
996
1788
1206
1320
1689
882
1836
1140
1488
1536
1047
1839
1020
1509
1503
1089
1788
1005
1668
1362
1161
1740
1017
1731
1248
1230
1686
990
1755
1170
1407
1557
996
1851
1065
1623
1326
1104
1815
1047
1599
1395
1149
1788
1005
1680
1275
1260
1719
972
1788
1170
1320
1620
987
1944
1050
1515
1575
1065
1830
1050
1623
1470
1017
1833
1005
1740
1290
1221
1737
927
1758
1239
1269
1665
978
1875
1095
1440
1584
1005
1875
1029
1584
1473
1113
1785
1011
1725
1221
1188
1782
942
1758
1257
1284
1677
990
1809
1158
1422
1587
1008
1797
1074
1560
1491
1092
1806
1038
1668
1269
1143
1800
996
1671
1317
1257
1668
1026
1734
1203
1383
1629
987
1875
978
1539
1566
1011
1848
1029
1614
1419
1116
1797
939
1719
1428
1077
1776
987
1734
1179
1338
1707
846
1851
1173
1455
1560
1005
1797
1035
1584
1365
1125
1824
963
1722
1332
1188
1788
825
1812
1230
1293
1671
951
1830
1179
1413
1584
1059
1797
1026
1593
1497
1128
1782
1059
1641
1311
1167
1815
897
1779
1260
1236
1725
1002
1806
1137
1428
1560
972
1854
1071
1524
1512
966
1827
1041
1677
1395
1107
1833
990
1722
1302
1182
1752
948
1824
1164
1335
1689
867
1836
1128
1479
1527
1011
1878
1005
1569
1467
1098
1803
1002
1683
1356
1140
1740
960
1812
1215
1242
1686
966
1848
1107
1443
1599
978
1854
1008
1569
1509
1041
1848
960
1821
1266
1206
1824
951
1749
1182
1263
1674
957
1824
1122
1398
1659
921
1851
1092
1527
1485
1002
1881
1011
1623
1383
1155
1824
915
1731
1281
1215
1791
819
1863
1197
1329
1596
927
1887
1089
1473
1590
960
1896
1032
1653
1275
1122
1890
993
1731
1290
1194
1809
927
1788
1305
1197
1719
948
1833
1203
1398
1683
939
1887
1071
1266
1551
1074
1857
1035
1539
1383
1146
1764
837
1782
1305
1140
1743
948
1863
1095
1416
1650
879
1929
1014
1551
1503
969
1854
978
1743
1260
1134
1842
936
1734
1311
1194
1761
870
1863
1146
1329
1635
960
1908
1089
1518
1491
1041
1905
987
1659
1326
1134
1836
960
1716
1329
1128
1803
930
1797
1197
1287
1725
753
1860
1134
1431
1635
930
1941
894
1611
1503
1014
1866
1077
1515
1395
1179
1818
924
1788
1233
1221
1725
978
1770
1161
1458
1602
918
1929
1074
1287
1608
1059
1878
987
1659
1401
1110
1824
963
1770
1209
1239
1779
942
1752
1206
1374
1656
966
1800
1101
1512
1536
1005
1902
1023
1638
1431
1176
1599
1011
1767
1326
1104
1770
945
1884
1188
1365
1629
918
1875
1107
1434
1548
975
2004
948
1638
1503
1056
1872
897
1746
1344
1161
1776
984
1785
1233
1293
1707
945
1830
1110
1437
1617
960
1932
1017
1536
1542
1047
1869
891
1740
1374
1134
1821
921
1821
1119
1194
1746
918
1869
1119
1413
1521
954
1923
1035
1554
1512
1077
1833
1038
1626
1386
1119
1848
894
1800
1296
1158
1710
921
1860
1179
1269
1719
948
1875
1074
1500
1551
993
1914
990
1608
1422
1080
1866
999
1674
1242
1188
1776
909
1830
1194
1335
1584
948
1899
1068
1491
1587
957
1803
1044
1665
1464
1050
1863
921
1746
1314
1149
1758
882
1860
1215
1314
1683
894
1905
1119
1425
1614
939
1914
1008
1593
1512
1077
1833
954
1746
1332
1110
1839
891
1863
1167
1284
1719
810
1935
1143
1359
1668
942
1899
1035
1572
1572
936
1977
807
1743
1437
1062
1911
918
1800
1266
1134
1785
876
1863
1161
1302
1710
918
1836
1065
1482
1593
990
1890
993
1653
1455
1023
1941
912
1779
1362
1128
1836
870
1833
1203
1347
1725
813
1935
1110
1398
1635
888
1944
1014
1587
1539
999
1932
960
1755
1347
1077
1872
876
1812
1296
1194
1677
873
1917
1143
1350
1665
843
1944
1050
1542
1533
942
1968
966
1650
1419
1068
1929
915
1761
1347
1107
1656
894
1875
1191
1275
1731
822
1923
1107
1446
1632
897
1929
999
1584
1467
1002
1917
870
1683
1383
1101
1872
873
1857
1242
1188
1752
837
1893
1098
1317
1713
888
1923
1029
1530
1557
954
1923
948
1587
1485
1032
1917
951
1680
1308
1158
1803
924
1776
1200
1293
1707
861
1935
1089
1434
1602
906
1944
948
1602
1644
852
1959
966
1674
1368
1107
1884
771
1866
1245
1245
1761
864
1914
1122
1371
1782
720
1941
1059
1527
1587
957
1956
930
1692
1452
978
1923
873
1761
1293
1188
1815
867
1821
1191
1266
1770
813
1914
1011
1497
1605
957
1944
972
1623
1503
978
1875
924
1743
1293
1128
1860
873
1842
1206
1266
1701
858
1932
1056
1422
1653
897
1950
1038
1524
1461
972
1932
897
1692
1398
1089
1887
909
1800
1260
1212
1749
852
1899
1155
1344
1689
861
1950
1017
1482
1599
861
1971
981
1683
1431
1017
1932
897
1782
1308
1119
1845
831
1884
1209
1257
1746
885
1899
1074
1446
1629
837
2007
963
1644
1488
987
1917
912
1737
1359
1089
1860
861
1908
1191
1188
1749
864
1941
1089
1377
1665
867
1947
981
1569
1563
918
1965
945
1671
1398
1059
1890
855
1845
1218
1179
1806
819
1905
1140
1335
1692
849
1959
990
1518
1608
885
1986
984
1662
1488
1011
1917
870
1794
1302
1092
1890
858
1908
1200
1191
1758
846
1932
1038
1494
1587
879
1989
954
1599
1524
987
1953
909
1725
1419
1044
1908
858
1863
1179
1224
1809
831
1917
1095
1380
1680
837
1965
1002
1506
1572
915
1980
936
1680
1425
1044
1941
852
1812
1248
1176
1836
837
1911
1131
1278
1737
801
1971
1071
1482
1596
855
2016
948
1626
1521
981
1968
867
1788
1299
1104
1872
846
1878
1188
1224
1788
840
1965
1095
1380
1665
900
1896
1029
1557
1590
903
1953
942
1656
1404
1050
1914
867
1815
1233
1161
1860
783
1911
1086
1332
1719
846
1869
1014
1515
1566
909
1986
951
1605
1500
987
1938
861
1773
1335
1152
1809
903
1812
1212
1242
1710
846
1932
1089
1476
1650
843
1962
1023
1572
1548
954
1998
846
1719
1404
1080
1947
840
1887
1206
1191
1824
810
1929
1104
1335
1716
852
1959
1011
1545
1596
909
1971
975
1611
1461
1029
1959
813
1806
1308
1137
1893
828
1869
1194
1263
1764
753
1965
1053
1455
1647
855
1974
975
1620
1494
1005
1911
894
1761
1353
1080
1875
840
1872
1203
1224
1752
810
1935
1071
1419
1665
879
1938
918
1533
1569
954
1962
954
1683
1425
1068
1896
894
1821
1239
1185
1803
777
1917
1131
1356
1725
828
1953
981
1542
1551
918
2004
951
1668
1485
1083
1839
900
1824
1242
1119
1872
795
1860
1167
1287
1722
837
1989
1068
1470
1608
885
2010
939
1599
1482
981
1971
888
1776
1344
1116
1905
801
1896
1227
1233
1773
822
1962
1104
1407
1659
843
1992
972
1653
1404
999
1977
843
1737
1422
1050
1938
855
1752
1239
1245
1752
828
1944
1062
1320
1755
807
1902
1005
1506
1599
918
1995
939
1674
1422
1026
1920
897
1797
1296
1149
1830
816
1899
1167
1287
1671
801
1950
1074
1449
1632
876
1977
939
1608
1500
948
1983
828
1776
1389
1131
1863
783
1890
1212
1224
1776
822
1884
1110
1455
1629
795
1989
996
1566
1497
978
1971
927
1665
1437
1044
1935
852
1827
1272
1032
1866
816
1935
1170
1239
1755
834
1953
1023
1500
1602
915
1950
903
1662
1503
990
1980
879
1767
1341
1113
1878
816
1905
1206
1224
1812
792
1968
1038
1434
1683
873
1968
984
1572
1536
936
1992
942
1689
1374
1068
1911
843
1836
1269
1125
1839
822
1932
1167
1335
1752
831
1962
987
1494
1635
822
2001
963
1641
1485
981
1959
846
1797
1413
1020
1914
852
1872
1206
1218
1743
837
1962
1047
1380
1716
837
1992
993
1578
1551
969
1872
945
1713
1407
1029
1929
864
1860
1260
1152
1842
816
1926
1104
1335
1764
798
1965
1041
1509
1605
891
2025
939
1662
1461
1008
1968
867
1827
1326
1059
1893
822
1896
1179
1245
1785
819
1935
1074
1455
1641
891
1944
966
1581
1545
948
1989
891
1725
1308
1068
1989
807
1881
1239
1191
1845
759
1956
1092
1326
1701
789
1965
1023
1488
1590
924
1992
909
1662
1434
1017
1938
849
1833
1278
1119
1890
798
1971
1131
1299
1755
783
1983
1014
1482
1638
867
2025
921
1605
1500
987
1980
873
1797
1305
1110
1878
804
1908
1245
1203
1794
792
1956
1074
1425
1659
855
1989
951
1617
1482
966
2007
882
1746
1335
1077
1950
846
1887
1164
1203
1839
801
1893
1125
1389
1731
780
1989
978
1545
1578
921
1986
915
1698
1404
966
1941
822
1854
1266
1152
1845
816
1917
1137
1302
1761
840
1959
1014
1518
1614
882
1980
927
1644
1539
951
1977
852
1800
1308
1104
1830
834
1926
1158
1266
1770
735
1986
1053
1452
1647
816
2001
909
1650
1512
981
1953
921
1794
1338
1083
1899
837
1845
1206
1230
1746
795
1974
1074
1398
1674
822
1968
996
1545
1554
936
1950
849
1701
1422
1077
1899
834
1845
1239
1173
1827
807
1926
1140
1347
1746
846
1989
1029
1521
1608
888
1956
912
1707
1473
1023
1911
897
1815
1293
1128
1833
837
1893
1161
1260
1731
888
1908
1134
1392
1650
888
1992
978
1605
1500
981
1947
900
1836
1212
1113
1896
828
1875
1167
1197
1791
828
1947
1047
1356
1665
816
1959
981
1593
1530
954
1977
921
1710
1410
1047
1923
798
1839
1233
1182
1794
792
1923
1125
1353
1710
813
1968
1068
1530
1587
933
2031
909
1695
1455
1017
1932
864
1800
1218
1122
1890
825
1899
1164
1263
1749
840
1938
1059
1452
1638
888
1959
951
1608
1533
978
1929
879
1737
1362
1083
1902
831
1860
1245
1179
1845
771
1926
1125
1377
1695
816
2001
1017
1551
1557
939
1995
864
1722
1425
1050
1905
867
1830
1251
1161
1842
855
1917
1128
1302
1725
837
1935
1023
1488
1614
900
1953
951
1680
1383
1020
1950
876
1776
1326
1092
1884
828
1938
1104
1284
1782
810
1974
1008
1362
1605
879
1959
1026
1527
1569
975
1935
918
1758
1305
1074
1935
858
1779
1260
1185
1818
828
1932
1137
1311
1752
750
1974
1014
1530
1584
924
1965
936
1659
1419
1029
1929
945
1692
1329
1152
1854
852
1890
1179
1308
1671
819
1935
1044
1464
1653
912
1995
972
1614
1512
996
1971
846
1791
1311
1068
1896
837
1854
1206
1212
1791
819
1947
1095
1341
1611
849
1989
978
1617
1425
978
1980
918
1719
1467
993
1953
822
1854
1227
1218
1761
822
1935
1131
1335
1725
807
1980
1050
1467
1587
921
2010
924
1689
1446
1050
1881
885
1800
1302
1092
1839
843
1914
1149
1296
1731
825
1971
1029
1476
1650
873
1974
957
1626
1515
918
1983
888
1773
1350
1092
1896
768
1857
1230
1251
1776
816
1965
1074
1368
1659
867
2070
807
1626
1551
960
1941
891
1761
1374
1059
1914
825
1896
1209
1203
1806
819
1938
1095
1383
1680
798
1980
1008
1473
1596
909
1950
903
1701
1443
1002
1980
849
1818
1236
1128
1851
831
1857
1167
1314
1722
807
1965
996
1482
1638
903
1986
957
1596
1503
945
1956
816
1812
1311
1107
1932
786
1923
1170
1200
1821
762
1959
1068
1389
1728
789
1971
963
1590
1560
948
1962
888
1704
1413
1050
1941
819
1830
1188
1218
1854
813
1929
1128
1341
1743
828
1977
1029
1527
1587
945
2022
900
1659
1494
1020
1953
852
1911
1173
1176
1884
819
1959
1098
1302
1743
801
1971
1020
1455
1641
903
1947
846
1695
1506
960
1941
861
1791
1344
1065
1905
813
1926
1188
1251
1809
792
1968
1083
1455
1650
849
2028
924
1596
1545
963
1908
915
1725
1389
1047
1962
777
1893
1299
1098
1854
813
1893
1095
1380
1695
807
2001
996
1539
1557
846
2043
921
1788
1326
1032
1935
789
1848
1263
1176
1830
759
1935
1167
1344
1629
813
1998
1014
1497
1608
867
2016
879
1659
1575
801
1959
855
1827
1242
1137
1905
807
1908
1182
1254
1731
834
1989
1047
1458
1608
840
2013
960
1617
1536
930
2001
900
1779
1362
1065
1914
891
1776
1209
1236
1818
801
1965
1092
1356
1701
819
2004
966
1611
1428
918
2010
900
1719
1410
1071
1926
840
1854
1254
1140
1767
858
1905
1119
1335
1725
831
1878
1032
1569
1548
888
1992
936
1734
1428
987
1971
855
1812
1314
1104
1872
819
1917
1158
1314
1692
807
1977
1038
1461
1638
795
1998
939
1638
1509
1017
1896
897
1782
1359
1086
1884
783
1899
1203
1221
1773
786
1935
1101
1317
1737
810
2022
987
1557
1566
909
1998
903
1689
1413
1023
2031
729
1872
1260
1149
1848
771
1941
1134
1266
1755
825
2052
975
1527
1629
897
2016
930
1641
1476
1011
1962
858
1758
1275
1107
1857
816
1911
1140
1248
1776
879
1932
1068
1458
1581
852
2025
870
1629
1518
951
1983
909
1740
1404
1086
1929
825
1812
1224
1200
1803
798
1923
1074
1395
1671
831
2007
969
1581
1596
918
1983
867
1734
1386
1038
1995
828
1860
1245
1191
1842
825
1923
1143
1347
1701
798
1986
957
1527
1590
912
1965
921
1722
1386
1014
1983
861
1818
1236
1158
1854
786
1929
1107
1296
1764
801
2013
1008
1449
1650
861
1956
984
1584
1497
954
2022
828
1791
1371
1014
1908
900
1851
1239
1233
1839
744
1953
1080
1350
1716
762
2031
978
1575
1587
930
2001
912
1710
1407
1071
1875
849
1851
1293
1152
1851
798
1947
1107
1290
1707
804
1998
1008
1644
1506
849
2037
930
1677
1464
1023
1827
876
1833
1308
1101
1896
771
1941
1191
1236
1788
795
2004
1053
1425
1653
852
2013
954
1590
1575
852
1992
864
1791
1350
1056
1935
819
1914
1161
1218
1812
822
2001
1083
1374
1656
810
2019
993
1554
1518
876
2031
894
1683
1419
1023
1947
819
1866
1233
1155
1815
825
1956
1110
1326
1743
795
2031
975
1536
1584
912
2019
837
1704
1488
933
1944
864
1818
1245
1125
1881
774
1953
1131
1305
1761
771
2001
1056
1443
1662
831
2004
927
1641
1524
849
2031
876
1782
1371
1023
1911
816
1905
1209
1176
1710
747
2001
1077
1383
1701
870
1830
1008
1575
1593
891
2031
867
1719
1419
1002
1974
813
1719
1263
1146
1875
777
1977
1125
1284
1659
789
2022
999
1512
1584
879
2022
909
1659
1458
915
2013
843
1806
1305
1068
1929
723
1956
1185
1242
1788
813
1896
1056
1443
1665
825
2037
975
1581
1560
1017
1932
861
1794
1380
1059
1938
786
1893
1254
1119
1827
843
1920
1116
1377
1707
801
2013
978
1536
1551
882
2007
915
1677
1431
1017
1956
867
1854
1218
1101
1851
792
1950
1128
1290
1740
747
2025
1011
1494
1590
858
2070
879
1647
1494
969
1977
816
1842
1362
1044
1920
801
1917
1185
1221
1779
774
1992
1059
1413
1665
837
2058
888
1629
1533
897
2004
882
1731
1380
1038
1899
801
1917
1209
1173
1857
783
1950
1092
1335
1731
771
2019
954
1572
1548
915
2013
891
1701
1452
1011
2004
807
1833
1278
1140
1902
744
1950
1170
1311
1701
822
2001
1041
1461
1662
816
1971
942
1659
1506
951
2016
843
1791
1350
1053
1938
759
1929
1158
1230
1839
786
2022
1023
1401
1701
840
2013
978
1563
1554
912
2007
852
1743
1395
1014
1968
828
1830
1203
1185
1836
783
1950
1104
1317
1743
741
2046
966
1467
1578
858
2022
915
1650
1491
975
2001
840
1764
1350
1026
1944
783
1911
1158
1269
1788
780
1983
1011
1488
1641
846
2046
930
1629
1554
945
1971
870
1767
1329
1005
1890
816
1869
1224
1209
1830
717
1986
1116
1377
1686
810
2073
921
1527
1599
885
2016
885
1650
1461
999
2001
819
1830
1287
1128
1866
768
1923
1149
1299
1698
777
2031
939
1512
1650
852
2037
876
1659
1515
960
1974
834
1824
1344
1071
1893
813
1917
1164
1239
1806
753
2001
1071
1392
1677
822
2031
945
1560
1563
900
1992
891
1740
1395
1017
1971
816
1866
1242
1176
1857
807
1962
1074
1332
1713
810
1995
909
1560
1620
909
1989
900
1695
1470
963
1977
909
1770
1308
1134
1890
792
1947
1173
1251
1764
738
2028
1041
1458
1692
792
2058
906
1638
1536
921
2016
891
1758
1311
1026
1884
819
1974
1143
1227
1824
771
1971
1047
1404
1665
807
2061
972
1593
1584
912
1983
873
1743
1419
993
1884
843
1878
1227
1161
1872
777
1947
1122
1317
1770
735
2040
1011
1500
1638
870
2025
849
1686
1482
972
2004
804
1728
1323
1116
1911
777
1941
1092
1281
1791
780
2004
1035
1431
1686
768
2061
945
1620
1536
924
2007
885
1608
1416
1056
1956
804
1890
1224
1143
1836
789
1953
1086
1377
1848
615
2043
978
1560
1587
876
2067
912
1716
1410
1011
1980
858
1815
1269
1152
1890
708
1965
1161
1254
1794
744
2025
969
1488
1680
846
2055
918
1662
1524
912
2019
852
1809
1338
1086
1878
810
1914
1164
1230
1797
816
1980
1071
1413
1695
858
1944
924
1602
1563
903
2064
837
1746
1395
1032
1965
804
1941
1224
1176
1857
801
1905
1104
1359
1734
783
2016
984
1563
1539
897
2076
891
1695
1455
981
2025
792
1851
1296
1101
1896
759
1905
1155
1293
1755
774
1971
981
1479
1665
846
2070
897
1617
1527
909
1992
873
1740
1350
1053
1941
759
1902
1200
1203
1818
822
1851
1113
1374
1659
813
2031
942
1590
1554
873
2004
873
1641
1449
993
1998
822
1851
1239
1146
1866
780
2013
1005
1305
1776
762
1992
1020
1488
1632
846
2013
903
1683
1464
957
1965
828
1818
1302
1074
1914
771
1944
1161
1185
1779
687
2016
1062
1413
1701
807
2037
945
1629
1527
945
1998
873
1761
1353
1026
1959
807
1887
1233
1164
1902
702
1986
1065
1362
1716
792
2019
978
1566
1623
840
2034
882
1707
1425
963
1989
810
1848
1263
1089
1890
801
1926
1137
1263
1782
801
1941
1032
1479
1656
858
2013
918
1662
1518
981
2025
825
1815
1377
1062
1896
801
1911
1185
1212
1815
768
1989
1032
1407
1719
801
2019
960
1566
1581
912
2013
873
1743
1434
993
1965
855
1794
1263
1179
1848
783
1962
1068
1344
1728
768
2031
1008
1479
1578
873
2019
912
1680
1470
1002
1986
855
1830
1314
1032
1893
786
1938
1155
1236
1809
780
2025
951
1497
1623
828
2034
930
1638
1518
921
2007
867
1746
1428
963
2010
705
1929
1230
1197
1833
789
1971
1011
1371
1710
831
1971
978
1575
1611
816
2010
981
1629
1452
1002
1953
825
1830
1248
1116
1788
765
1968
1098
1311
1740
792
2019
975
1503
1611
894
2019
906
1659
1527
972
2004
795
1833
1296
1089
1911
792
1938
1128
1242
1845
738
1899
1053
1425
1659
810
2034
945
1587
1569
903
2079
843
1773
1395
999
1956
798
1881
1233
1188
1845
807
1983
1044
1323
1737
792
2031
900
1563
1599
900
2001
963
1644
1449
999
1977
825
1824
1293
1116
1875
774
1926
1122
1284
1731
813
1998
1038
1473
1632
864
1941
924
1674
1542
918
2016
840
1788
1344
1056
1881
792
1950
1188
1230
1824
768
1944
1068
1407
1701
813
2079
852
1542
1608
945
1989
909
1725
1392
1011
1893
834
1899
1185
1188
1830
765
1953
1086
1350
1743
783
1995
996
1536
1593
849
2106
849
1704
1443
960
1968
831
1824
1299
1092
1896
795
1920
1107
1293
1785
798
1998
1011
1458
1662
864
1968
903
1629
1500
906
1998
873
1797
1311
1062
1950
798
1908
1218
1215
1818
846
1941
1065
1383
1710
807
2025
960
1551
1569
924
2016
849
1746
1431
1002
1971
801
1854
1269
1182
1878
774
1953
1149
1314
1755
756
1974
1053
1503
1647
855
2034
879
1701
1434
978
1977
828
1773
1335
1080
1905
777
1905
1152
1182
1791
786
2043
1050
1440
1737
756
2022
924
1638
1533
942
2007
846
1779
1365
1047
1890
825
1902
1215
1209
1821
801
1977
1062
1374
1644
804
2052
942
1536
1617
867
2010
894
1731
1383
978
1995
825
1857
1266
1140
1839
783
1956
1119
1311
1731
756
2010
1008
1500
1629
876
2016
897
1680
1521
924
1980
879
1806
1296
1089
1905
792
1935
1260
1143
1791
783
1992
1047
1374
1680
825
1998
963
1587
1548
891
2028
876
1752
1374
1047
1947
795
1884
1191
1194
1866
660
1992
1098
1365
1740
819
1971
987
1593
1524
918
2019
888
1734
1368
1044
1986
774
1848
1263
999
1842
777
1968
1143
1284
1752
825
2010
987
1446
1644
873
2013
930
1584
1512
951
2034
768
1815
1344
1083
1914
690
1938
1191
1221
1818
756
1947
1053
1428
1695
816
2082
885
1614
1557
921
2001
870
1770
1308
1071
1974
810
1869
1236
1191
1737
819
1971
1101
1347
1722
843
1947
987
1512
1593
861
2028
867
1707
1458
942
1959
855
1848
1296
1098
1863
774
1923
1146
1293
1773
810
1956
1023
1461
1668
816
2025
927
1578
1536
954
1965
867
1782
1362
1107
1875
801
1905
1197
1266
1710
765
2004
1077
1401
1698
783
2064
954
1587
1548
924
1959
870
1719
1413
1032
1914
828
1899
1224
1158
1830
777
1989
1041
1350
1758
783
1989
999
1527
1581
867
2043
996
1548
1476
996
1986
834
1836
1311
1104
1899
738
1845
1125
1248
1770
783
2049
993
1452
1668
837
2031
924
1497
1539
963
1974
861
1755
1359
1050
1935
834
1815
1224
1206
1830
810
1923
1095
1395
1710
795
2022
960
1524
1590
909
2007
882
1671
1428
1032
1968
816
1911
1212
1158
1857
774
1950
1125
1287
1764
798
2010
1002
1473
1590
882
2016
906
1719
1407
978
1983
900
1698
1317
1158
1908
801
1902
1233
1224
1788
783
2019
951
1476
1656
840
2019
939
1644
1533
942
1968
870
1752
1380
1077
1941
801
1887
1218
1164
1854
738
2007
1044
1380
1689
813
2034
981
1518
1578
876
2016
870
1755
1389
1074
1953
873
1830
1269
1164
1860
744
1965
1134
1317
1713
777
1974
1032
1533
1611
888
2052
843
1671
1476
990
1947
846
1794
1383
1065
1890
780
1929
1116
1263
1812
735
1980
1017
1416
1677
831
2052
918
1629
1521
927
1905
873
1800
1344
1050
1920
798
1920
1203
1212
1809
798
1947
1110
1344
1713
768
1986
987
1575
1569
921
1941
900
1728
1404
1023
1965
768
1851
1257
1149
1866
702
1971
1125
1320
1758
744
2031
1032
1518
1635
867
1974
939
1680
1482
966
2001
783
1827
1302
1080
1866
810
1890
1173
1263
1785
843
1944
1035
1449
1671
936
1914
927
1644
1527
945
2001
849
1782
1383
1041
1941
774
1908
1119
1191
1845
789
1962
1080
1377
1722
780
2013
1002
1488
1611
894
2010
903
1695
1455
1002
2004
789
1851
1284
1200
1809
744
1953
1092
1314
1755
744
2031
1008
1515
1635
825
2031
939
1719
1437
954
2004
864
1794
1326
1104
1911
792
1869
1176
1203
1791
828
1998
1041
1440
1626
858
2001
909
1620
1509
957
2034
843
1764
1362
1059
1935
858
1839
1221
1227
1830
711
1959
1080
1386
1695
828
1929
975
1596
1491
918
2019
900
1653
1443
1014
1962
822
1866
1170
1197
1839
750
1932
1143
1311
1746
783
2001
993
1521
1614
843
2028
855
1689
1479
990
1968
849
1779
1233
1122
1884
777
1932
1080
1281
1770
780
1851
1059
1473
1656
843
1998
969
1617
1503
966
2004
846
1779
1359
1059
1935
798
1902
1275
1161
1890
711
1938
1077
1392
1689
831
1995
888
1611
1563
921
1983
840
1740
1407
1008
1968
798
1860
1290
1167
1857
798
1929
1098
1323
1746
780
1989
996
1503
1584
891
2046
891
1689
1494
984
2001
786
1845
1308
1098
1890
852
1851
1170
1212
1800
786
1941
1038
1455
1665
870
1995
960
1605
1539
951
2004
855
1761
1353
1074
1902
864
1821
1227
1212
1812
798
1926
1074
1395
1701
801
2052
921
1566
1584
909
2013
888
1695
1440
1017
1956
840
1872
1203
1170
1860
774
1968
1116
1266
1755
792
1998
1005
1503
1665
837
2034
891
1686
1488
1008
1833
891
1836
1311
1107
1893
795
1836
1071
1299
1779
789
1995
1038
1464
1629
840
2013
930
1626
1530
960
1908
873
1767
1368
1059
1938
846
1821
1209
1212
1821
807
1863
1089
1386
1710
801
2025
987
1482
1602
921
2028
810
1716
1422
1026
1968
819
1761
1284
1164
1860
813
1911
1149
1299
1794
747
2013
1062
1422
1614
864
2028
909
1635
1479
945
2007
837
1788
1344
1086
1917
801
1953
1134
1239
1770
792
1998
1041
1434
1656
885
2061
918
1632
1530
942
1998
864
1740
1368
1065
1920
765
1920
1200
1212
1851
771
1977
1074
1347
1713
810
1998
1020
1527
1614
876
2031
903
1671
1440
1005
1971
825
1788
1302
1143
1875
813
1932
1077
1317
1746
774
2004
1032
1512
1605
837
2022
864
1692
1467
978
1962
804
1845
1254
1026
1920
735
1941
1161
1248
1764
771
2013
1035
1431
1668
804
1968
930
1641
1551
876
2001
888
1749
1332
1077
1968
756
1896
1203
1233
1800
765
2040
1059
1425
1683
801
2049
930
1623
1557
933
2025
846
1755
1452
972
1968
792
1845
1254
1179
1851
789
1974
1116
1332
1731
813
2028
1035
1470
1608
861
2052
891
1689
1461
975
1980
870
1812
1221
1140
1905
735
1938
1152
1260
1815
714
2019
1029
1461
1656
789
1989
900
1647
1536
930
1995
855
1758
1344
1074
1932
795
1896
1152
1239
1794
777
1992
1041
1395
1674
849
1995
996
1599
1581
936
1974
870
1749
1386
1035
1959
792
1821
1257
1131
1881
786
1977
1131
1305
1698
810
1986
987
1551
1602
891
1989
936
1722
1479
1002
1962
759
1845
1281
1107
1869
804
1935
1179
1266
1779
795
1965
1053
1470
1647
807
2046
951
1611
1527
936
1995
891
1668
1353
1068
1908
786
1911
1158
1227
1818
732
1950
1080
1422
1671
774
2055
903
1659
1497
912
1995
876
1725
1410
1047
1989
756
1854
1230
1170
1812
744
2028
1008
1383
1707
771
2019
984
1527
1620
819
2043
906
1668
1473
1029
1953
858
1854
1269
1077
1875
828
1983
1125
1296
1761
789
1986
1041
1437
1656
873
1953
888
1698
1488
924
1956
819
1845
1296
1071
1968
681
1944
1179
1257
1713
795
2007
1035
1443
1674
828
2043
900
1605
1533
924
1944
897
1725
1371
1044
1938
870
1839
1230
1257
1797
771
1947
1062
1383
1710
816
1977
954
1575
1575
927
1956
906
1704
1410
1017
1968
858
1773
1287
1140
1818
771
1968
1113
1335
1734
792
2007
960
1545
1587
888
2007
915
1668
1428
1017
1926
795
1842
1293
1077
1896
789
1920
1155
1257
1767
792
1983
1068
1413
1692
867
2049
948
1593
1512
945
2007
798
1794
1320
1065
1923
777
1839
1200
1215
1725
801
1986
1083
1389
1698
822
1971
960
1635
1536
918
2037
906
1767
1368
978
1935
804
1893
1227
1173
1815
807
1998
1077
1371
1710
804
2013
975
1560
1596
816
2052
861
1704
1464
966
1986
810
1848
1272
1191
1872
792
1968
1116
1266
1776
786
1995
1014
1515
1599
822
2034
921
1695
1488
951
2016
840
1809
1317
1059
1869
777
1938
1182
1227
1809
777
2034
1020
1431
1710
801
1983
951
1605
1545
924
2004
906
1614
1410
1044
1941
819
1905
1215
1173
1848
780
1974
987
1368
1734
786
2052
963
1530
1614
882
2028
885
1713
1392
957
1977
846
1872
1269
1128
1842
798
1980
1131
1284
1770
792
2064
966
1488
1629
846
2037
918
1638
1512
969
1989
840
1800
1317
1065
1980
756
1917
1221
1236
1803
771
1977
1044
1398
1698
810
1974
942
1602
1551
915
2001
879
1755
1368
1065
1950
828
1827
1278
1152
1845
792
1944
1110
1353
1770
693
2043
969
1584
1596
888
2001
888
1707
1419
1026
1965
789
1893
1227
1161
1857
789
1944
1128
1314
1740
762
2007
1014
1497
1629
879
2010
924
1689
1422
987
1905
852
1800
1239
1119
1881
771
1854
1155
1269
1824
780
2016
1032
1467
1674
780
2028
912
1662
1488
936
2007
867
1779
1353
1059
1881
786
1929
1107
1254
1830
780
1974
1056
1425
1632
816
2052
939
1605
1548
954
1992
870
1764
1377
1011
1899
804
1911
1200
1131
1872
777
1953
1077
1371
1722
792
2022
948
1590
1614
855
1962
900
1779
1377
1002
1959
828
1839
1227
1119
1875
792
1920
1152
1323
1752
798
1995
1029
1479
1620
897
2019
840
1689
1461
975
1971
822
1833
1293
1089
1887
801
1929
1152
1275
1773
768
1980
1038
1467
1680
828
2025
930
1644
1503
975
1995
852
1779
1317
1098
1896
798
1869
1218
1260
1827
783
1983
1065
1407
1695
810
2037
981
1617
1488
942
2028
885
1710
1404
1023
1953
810
1872
1245
1140
1833
780
1989
1080
1350
1794
678
2055
987
1530
1623
789
2019
906
1701
1437
978
1974
780
1881
1293
1122
1887
780
1923
1146
1272
1761
774
2016
1035
1458
1629
885
2013
915
1665
1485
969
1842
879
1827
1311
1089
1911
699
1920
1170
1263
1782
783
2019
945
1482
1680
831
2025
933
1611
1479
969
2001
846
1782
1410
981
1950
819
1917
1224
1170
1797
801
1992
1059
1404
1683
801
2016
948
1617
1569
933
1998
867
1758
1359
1020
1947
819
1914
1224
1167
1842
804
1989
1083
1383
1764
675
2043
981
1584
1572
897
2022
876
1725
1398
951
1974
801
1893
1230
1110
1851
783
1956
1125
1317
1770
747
2022
975
1554
1629
882
2022
879
1740
1422
1014
1947
852
1815
1236
1128
1887
771
1956
1113
1272
1788
846
1962
1017
1536
1635
840
2028
906
1695
1530
987
1944
849
1821
1296
1059
1926
768
1920
1149
1260
1818
777
1992
987
1461
1665
855
2010
960
1662
1479
984
1884
855
1797
1347
1047
1902
765
1899
1227
1203
1809
777
1989
1056
1413
1683
765
2019
957
1557
1527
936
2025
831
1779
1380
1062
1932
876
1857
1218
1209
1770
798
1989
1083
1395
1689
795
2046
933
1548
1515
942
2037
828
1737
1434
972
1980
771
1872
1248
1134
1872
789
1974
1134
1302
1758
780
2037
990
1560
1596
876
2034
906
1677
1488
987
2016
789
1839
1254
1122
1851
777
1950
1140
1296
1749
753
2022
1014
1449
1638
849
2049
918
1629
1500
918
1956
852
1845
1281
1071
1950
783
1920
1164
1260
1734
777
1989
1026
1488
1647
813
2010
939
1647
1524
939
2013
837
1767
1353
1035
1887
750
1959
1161
1218
1779
780
1998
1062
1416
1707
837
2025
894
1620
1566
915
1998
885
1794
1377
978
1962
705
1887
1182
1185
1833
774
1959
1116
1314
1722
819
2022
978
1602
1575
906
2016
888
1743
1374
1026
1959
756
1839
1257
1155
1860
771
1962
1050
1341
1680
798
2046
990
1536
1680
768
2022
900
1710
1449
993
1989
786
1851
1239
1110
1893
759
1968
1116
1323
1752
786
2013
1044
1386
1662
882
2034
894
1668
1497
951
2028
768
1842
1365
1035
1944
771
1959
1164
1242
1773
762
2043
993
1470
1683
813
2037
927
1701
1401
984
2007
846
1779
1311
1089
1947
747
1929
1206
1200
1809
777
2007
1083
1440
1668
846
2010
960
1545
1560
897
2010
849
1779
1338
1029
1983
753
1896
1242
1203
1770
795
1980
1086
1425
1674
804
2028
951
1560
1584
927
1881
930
1731
1416
1008
1953
840
1830
1269
1155
1863
774
1971
1086
1314
1725
795
2019
975
1521
1605
762
2082
918
1686
1455
972
2004
807
1833
1263
1131
1866
774
1947
1137
1311
1773
774
2001
1032
1497
1632
855
2025
960
1557
1530
999
1998
843
1800
1311
1062
1899
783
1932
1170
1266
1800
780
2010
1047
1455
1626
831
2049
927
1626
1551
822
2040
855
1791
1344
1047
1923
774
1890
1200
1248
1776
756
1989
1068
1425
1683
834
2049
945
1584
1587
912
2040
834
1761
1392
1053
1929
777
1788
1251
1209
1869
726
1986
1092
1383
1764
720
2022
981
1539
1596
885
1998
897
1719
1389
1020
1965
822
1848
1242
1161
1845
777
1944
1122
1365
1707
753
2004
969
1518
1569
921
2007
906
1716
1419
1008
1977
840
1857
1221
1155
1872
747
1956
1125
1311
1740
819
2004
996
1566
1548
879
2013
906
1695
1449
987
1992
816
1839
1269
1167
1821
771
1947
1149
1284
1746
786
2013
1014
1476
1647
846
1980
942
1665
1452
975
1983
825
1821
1323
1089
1902
720
1959
1212
1203
1785
768
2019
1026
1431
1662
819
2046
933
1614
1524
951
1917
852
1827
1317
1074
1926
774
1914
1095
1245
1800
813
1941
1065
1425
1674
813
2037
930
1536
1548
936
1998
897
1743
1398
1026
1953
837
1905
1221
1218
1800
774
2004
1089
1410
1725
822
2052
912
1593
1575
897
2055
849
1761
1362
1050
1929
777
1875
1251
1173
1857
753
1959
1089
1335
1683
825
2016
1005
1521
1599
873
2013
888
1734
1428
1041
1935
813
1872
1278
1056
1890
753
1962
1113
1338
1776
693
2037
1011
1545
1644
825
2037
891
1659
1449
990
1953
813
1893
1203
1146
1875
783
1881
1131
1296
1743
753
2040
996
1473
1632
870
2016
921
1689
1476
993
1956
828
1830
1296
1101
1911
783
1947
1134
1314
1713
777
2013
1002
1530
1593
855
2049
918
1635
1473
975
1953
846
1842
1323
1050
1896
807
1941
1143
1302
1779
771
2040
909
1518
1632
834
2007
909
1671
1485
999
1968
822
1809
1308
1089
1905
780
1962
1155
1236
1788
786
2031
945
1470
1692
831
1998
927
1644
1509
948
1995
906
1689
1371
1083
1944
783
1923
1170
1242
1785
777
2004
1041
1443
1596
810
1998
948
1620
1542
885
2022
837
1749
1323
1098
1878
801
1938
1257
1134
1806
786
1953
1035
1377
1707
813
2049
894
1632
1530
945
2001
846
1758
1356
975
1980
735
1863
1236
1206
1833
804
1965
1086
1392
1704
807
1989
948
1584
1533
942
1998
885
1761
1362
1020
1947
813
1887
1227
1161
1815
786
1935
1098
1362
1695
786
2010
975
1581
1611
900
1995
879
1770
1353
1023
1983
774
1866
1251
1152
1860
771
1983
1020
1371
1734
792
2031
963
1554
1560
876
2022
885
1725
1344
1047
1935
828
1857
1233
1131
1857
783
1971
1077
1356
1737
750
2016
894
1554
1617
888
1998
888
1713
1434
969
1986
810
1857
1212
1125
1878
771
1944
1104
1320
1746
810
1989
978
1560
1500
909
2007
900
1689
1452
984
1971
831
1818
1248
1086
1872
807
1932
1140
1317
1731
786
2001
1005
1488
1641
837
2019
936
1650
1473
1023
1941
834
1791
1278
1122
1875
825
1863
1155
1263
1773
807
2013
990
1503
1623
858
2061
867
1671
1488
981
1983
819
1845
1272
1086
1890
744
1953
1164
1239
1794
786
2058
981
1521
1617
855
2019
912
1659
1473
1005
1944
834
1815
1308
1122
1890
762
1941
1143
1227
1773
828
1908
1047
1485
1647
819
2019
912
1641
1512
954
1995
822
1830
1278
1071
1914
795
1941
1158
1167
1800
780
1989
1023
1458
1671
873
1965
918
1659
1515
897
2001
816
1800
1350
1071
1896
771
1932
1164
1215
1791
819
1980
1038
1437
1689
828
2016
945
1635
1542
948
2037
846
1782
1347
1071
1926
774
1929
1188
1221
1848
714
2016
1053
1434
1671
789
2040
921
1614
1515
939
1989
864
1734
1356
1071
1890
807
1935
1191
1245
1776
789
2007
993
1431
1692
804
2055
936
1587
1527
909
1980
840
1785
1326
1065
1878
774
1914
1212
1155
1818
750
1986
1029
1407
1680
858
2046
894
1623
1515
939
1998
861
1779
1356
1053
1959
795
1899
1158
1230
1836
765
1977
1068
1398
1710
828
1998
921
1605
1536
936
1974
870
1779
1350
1035
1947
804
1860
1176
1233
1806
780
1989
1050
1401
1701
804
2031
987
1512
1530
888
2037
876
1746
1392
981
1911
807
1899
1215
1185
1767
786
1971
1026
1395
1734
792
1965
987
1584
1557
915
2010
918
1707
1401
1059
1962
753
1881
1233
1104
1836
825
1929
1083
1362
1698
762
2043
954
1548
1581
906
1974
888
1791
1362
1032
1986
783
1887
1224
1167
1824
804
1971
1062
1314
1758
783
2025
954
1554
1572
900
2022
858
1680
1380
1008
1992
819
1860
1224
1152
1872
759
1968
1083
1380
1755
783
1983
984
1542
1605
882
1971
885
1728
1398
1002
1983
858
1833
1260
1170
1848
756
1977
1098
1326
1752
786
2022
993
1587
1533
897
2022
894
1677
1398
999
1983
828
1827
1263
1140
1869
768
1968
1137
1302
1755
747
1965
1014
1533
1572
870
2028
894
1728
1410
975
1989
801
1875
1227
1128
1887
765
1959
1080
1305
1758
789
2049
993
1527
1647
801
2007
891
1689
1455
966
2034
807
1839
1284
1131
1836
762
1968
1107
1302
1743
753
2016
1020
1488
1647
879
2013
903
1725
1440
978
1995
792
1839
1284
1116
1857
798
1935
1146
1275
1809
786
2028
996
1506
1638
810
2028
903
1692
1509
948
2004
843
1824
1308
1125
1875
795
1926
1158
1317
1779
753
2040
1011
1458
1671
864
2010
870
1698
1491
927
1995
846
1875
1284
1083
1902
801
1890
1062
1266
1803
756
2025
966
1443
1686
831
2019
975
1650
1479
951
1977
846
1821
1347
1086
1914
777
2007
1119
1269
1785
810
1944
1080
1404
1668
810
2034
930
1683
1446
948
2001
867
1713
1380
1011
1938
783
1923
1170
1293
1755
780
2001
1035
1446
1677
840
2049
921
1629
1524
999
1929
849
1785
1374
1053
1926
792
1932
1194
1224
1791
801
1959
999
1458
1668
825
2073
900
1620
1533
936
1992
870
1764
1365
1074
1944
756
1923
1203
1221
1776
780
2013
1041
1383
1692
801
2013
948
1596
1602
843
1995
861
1767
1377
1047
1890
822
1869
1194
1194
1785
816
1956
1074
1377
1692
798
2043
945
1605
1560
915
1983
843
1758
1410
1032
1947
843
1851
1221
1179
1773
777
2016
1071
1350
1734
795
2052
906
1614
1560
909
1998
915
1725
1416
1035
1935
843
1881
1218
1155
1845
795
1962
1065
1365
1686
801
2040
966
1527
1572
903
2007
867
1686
1413
1008
1965
792
1899
1212
1149
1866
777
1983
1116
1371
1716
813
2031
942
1572
1599
882
2031
882
1722
1374
1041
1947
837
1848
1242
1170
1830
750
1962
1074
1362
1743
783
2040
951
1545
1602
909
2004
864
1686
1425
1014
1974
825
1878
1227
1146
1884
756
1992
1089
1350
1713
795
2004
1008
1539
1590
861
2034
882
1728
1416
990
1983
795
1878
1260
1140
1878
774
1926
1119
1335
1725
786
2040
1005
1566
1569
909
2043
891
1698
1437
999
1968
813
1851
1212
1152
1923
723
1971
1122
1308
1749
750
2034
993
1506
1599
873
2034
900
1650
1452
978
1992
825
1830
1323
1098
1896
756
1947
1143
1278
1812
744
2028
975
1479
1653
879
2028
921
1605
1494
990
1977
858
1833
1296
1128
1911
804
1944
1170
1284
1797
711
2004
1029
1494
1644
900
1953
912
1665
1443
939
1977
825
1767
1329
1110
1935
738
1950
1080
1275
1800
783
1983
1014
1440
1680
876
2010
933
1656
1521
912
1995
873
1839
1338
1065
1893
780
1923
1161
1242
1809
774
1986
1017
1476
1641
843
2028
912
1638
1542
900
1992
852
1815
1350
1059
1932
798
1884
1164
1227
1827
750
2040
1041
1440
1653
816
2034
933
1620
1503
1008
1905
903
1752
1332
1026
1941
789
1899
1212
1209
1815
786
1923
1113
1413
1704
798
2016
963
1608
1560
855
2025
846
1770
1383
1014
1953
789
1893
1242
1170
1809
801
2028
1041
1413
1695
783
2028
963
1584
1557
888
2046
792
1773
1380
1002
1977
798
1881
1191
1188
1842
747
1980
1071
1422
1686
792
2019
972
1566
1587
891
2034
849
1734
1416
1017
1974
810
1875
1227
1128
1857
822
1911
1104
1383
1716
765
2034
990
1584
1533
915
2001
921
1752
1416
990
1947
783
1896
1239
1158
1908
801
1968
1101
1347
1698
768
2022
981
1587
1584
900
1959
888
1737
1407
999
1992
783
1884
1221
1176
1851
822
1929
1128
1311
1749
780
1980
999
1524
1617
822
2034
876
1692
1470
1011
1959
843
1851
1260
1110
1839
777
1944
1167
1278
1806
735
2013
993
1500
1632
849
2016
903
1656
1455
978
1941
888
1710
1272
1119
1866
771
1956
1119
1299
1782
771
2019
1014
1569
1557
867
2034
903
1683
1479
951
2004
783
1824
1320
1092
1899
783
1974
1125
1281
1782
729
2013
1035
1443
1659
849
2019
885
1704
1446
981
2013
825
1803
1311
1086
1947
753
1950
1164
1326
1677
789
2034
999
1458
1671
837
2028
927
1629
1446
984
1986
810
1824
1335
1113
1908
789
1905
1176
1224
1806
780
2013
1011
1506
1611
813
2034
894
1617
1521
939
2007
846
1779
1254
1092
1926
750
1935
1188
1230
1794
783
2004
1050
1416
1689
807
2058
945
1584
1518
969
1995
831
1791
1353
1065
1944
834
1857
1164
1221
1833
768
2001
1056
1443
1614
816
2025
945
1638
1533
948
1989
888
1680
1353
1065
1944
786
1899
1221
1209
1824
768
1986
1080
1401
1734
807
2007
957
1587
1539
864
2028
927
1698
1377
1065
1962
756
1887
1224
1188
1815
780
1974
1098
1374
1701
804
2031
921
1578
1638
855
2031
894
1740
1404
1026
1965
849
1842
1233
1170
1872
816
1902
1122
1359
1734
792
1959
987
1533
1605
891
2013
888
1704
1425
954
1929
837
1866
1281
1125
1854
786
1971
1122
1404
1674
783
2040
1008
1524
1596
867
2007
888
1704
1464
987
1965
921
1782
1248
1140
1854
777
1947
1083
1320
1752
801
2001
1008
1515
1647
828
2022
837
1722
1458
1023
1968
822
1842
1287
1101
1875
786
1947
1080
1347
1701
780
2022
999
1539
1599
870
2028
897
1683
1398
996
1974
894
1851
1275
1116
1869
783
1944
1143
1278
1791
741
2004
1044
1494
1665
822
2061
915
1674
1461
972
1989
816
1836
1275
1143
1872
798
1917
1170
1242
1767
783
2031
969
1491
1668
819
2070
909
1644
1491
963
2004
801
1815
1359
1053
1923
759
1959
1056
1257
1791
777
2061
942
1476
1659
843
2007
891
1704
1446
966
1989
885
1773
1320
1104
1929
732
1932
1167
1221
1803
726
2001
1014
1440
1689
840
1977
942
1632
1509
927
1932
864
1806
1344
1074
1917
789
1917
1128
1251
1752
792
2001
1098
1368
1632
834
2037
918
1626
1518
906
1944
879
1770
1344
1077
1908
777
1923
1206
1209
1788
834
1956
1068
1407
1641
825
2031
924
1599
1545
996
1908
852
1806
1395
972
1941
783
1917
1203
1176
1830
780
1995
1044
1416
1698
828
2022
1011
1542
1530
894
2043
789
1770
1389
1035
1935
771
1881
1212
1200
1914
675
2034
1074
1389
1737
774
2016
984
1560
1563
900
2031
822
1734
1377
1041
1881
783
1875
1230
1170
1842
762
1971
1053
1395
1728
804
2028
966
1557
1560
906
2001
909
1704
1422
996
1944
816
1875
1239
1149
1869
777
1941
1128
1326
1692
831
1995
975
1557
1602
900
1986
852
1731
1419
1032
1944
885
1755
1242
1164
1863
759
1968
1068
1341
1722
792
2043
1029
1503
1584
912
1989
897
1710
1425
990
1998
810
1800
1257
1185
1827
795
1974
1095
1314
1758
801
1998
960
1533
1608
906
2028
888
1689
1455
972
1926
831
1836
1299
1152
1788
798
1959
1137
1362
1725
771
2010
984
1515
1650
813
1989
912
1686
1446
1014
2004
849
1851
1257
1107
1887
771
1938
1179
1197
1794
681
2025
1008
1488
1650
855
2016
906
1635
1482
984
1953
771
1830
1326
1149
1908
762
1935
1161
1230
1734
798
2019
1032
1506
1620
834
2004
912
1644
1509
960
1932
840
1803
1365
1092
1911
771
1914
1119
1269
1776
798
1995
984
1446
1668
834
2043
921
1683
1479
984
1998
834
1815
1365
1050
1950
771
1902
1161
1197
1806
798
1968
1065
1407
1614
837
2022
957
1578
1521
957
1992
867
1629
1362
1062
1887
807
1911
1185
1182
1821
783
1971
1047
1359
1725
807
2046
969
1569
1581
900
1992
876
1824
1323
1068
1926
792
1815
1203
1215
1821
768
1992
1095
1350
1722
789
2058
930
1611
1581
822
2010
888
1785
1368
1050
1983
720
1908
1215
1185
1746
792
2007
1065
1383
1710
831
2031
957
1578
1560
894
2085
909
1695
1398
1038
1944
816
1890
1203
1185
1836
804
1956
1071
1413
1704
774
2022
984
1560
1569
921
2001
867
1698
1437
1056
1944
813
1902
1215
1149
1812
804
1965
1086
1365
1710
816
1992
984
1575
1554
912
2004
903
1731
1404
1014
1971
822
1872
1134
1188
1878
756
1995
1011
1392
1722
840
2016
1014
1512
1587
918
1956
861
1788
1374
1050
1950
780
1875
1209
1161
1842
780
1992
1074
1326
1710
768
2040
1008
1563
1599
909
1992
897
1713
1392
957
1989
846
1818
1215
1152
1869
816
1998
1038
1353
1713
807
2007
1020
1485
1611
771
2031
825
1725
1458
954
1986
825
1845
1257
1134
1848
807
1974
996
1359
1779
798
1998
1026
1521
1620
858
2079
819
1590
1506
1005
1968
822
1818
1287
1134
1887
807
1941
1143
1293
1749
780
2013
1026
1503
1611
819
2043
894
1680
1425
993
2013
795
1827
1305
1077
1914
819
1854
1158
1281
1716
792
2013
1008
1485
1659
858
2001
993
1605
1563
903
2019
813
1827
1329
1077
1887
816
1959
1074
1275
1812
789
1992
1020
1449
1668
831
2046
918
1671
1443
948
2010
819
1782
1332
1065
1917
753
1926
1233
1167
1821
771
1977
1017
1437
1665
807
2031
945
1617
1554
903
2022
858
1797
1326
1059
1974
744
1920
1224
1197
1833
750
1995
1077
1410
1668
768
2049
921
1605
1581
870
2019
885
1791
1368
1011
1770
834
1917
1179
1191
1818
765
1989
1056
1413
1653
765
2028
972
1554
1599
882
2049
879
1731
1398
1041
1944
789
1902
1185
1224
1881
690
1992
1089
1380
1713
792
2034
948
1575
1578
933
1923
867
1740
1416
1014
1971
777
1896
1230
1170
1836
705
2031
1014
1371
1752
786
2061
948
1566
1554
897
2013
822
1731
1407
978
1992
720
1881
1269
1146
1845
771
1992
1002
1368
1713
753
2016
966
1557
1557
882
2088
774
1716
1452
939
1989
783
1821
1275
1152
1863
783
1977
1131
1299
1722
798
2052
966
1581
1587
882
2049
891
1710
1476
879
2037
831
1830
1182
1143
1878
759
1956
1125
1275
1731
777
2031
1011
1509
1656
840
2040
891
1698
1398
981
1995
804
1845
1188
1122
1917
762
1875
1152
1281
1776
741
2040
987
1467
1641
846
2028
939
1632
1518
948
2028
858
1776
1260
1032
1929
777
1965
1125
1263
1782
780
1998
1023
1482
1686
783
2046
903
1698
1473
900
2061
861
1830
1296
1074
1914
792
1923
1137
1260
1797
759
2037
1065
1392
1656
837
2040
927
1626
1524
861
2004
843
1800
1347
1125
1908
801
1881
1191
1203
1830
774
1968
1047
1446
1647
819
2025
951
1605
1545
831
2010
858
1773
1356
1020
1944
867
1896
1182
1221
1809
780
1983
1134
1302
1677
810
1938
960
1605
1533
900
1968
876
1752
1377
1086
1827
789
1908
1227
1158
1839
747
1983
1083
1395
1626
840
2034
969
1521
1566
903
2043
873
1680
1413
1020
1965
789
1875
1239
1125
1866
762
1911
1110
1374
1713
798
2025
978
1560
1596
885
1995
903
1611
1434
1005
1986
774
1881
1257
1149
1896
765
2007
1101
1332
1725
780
2022
996
1545
1611
876
1980
894
1761
1383
1032
2001
786
1866
1263
1140
1917
765
1977
1131
1317
1719
816
2013
1002
1533
1608
840
2073
876
1704
1461
957
2004
834
1815
1278
1113
1830
762
1965
1128
1287
1776
735
2043
1026
1479
1584
840
2058
888
1677
1458
966
2037
843
1782
1332
981
1920
762
1968
1122
1290
1746
792
2013
885
1530
1650
846
2031
927
1650
1479
972
2010
816
1863
1257
1095
1896
765
1968
1152
1281
1776
804
1974
1002
1521
1545
867
2076
855
1692
1467
957
1995
831
1830
1296
1098
1905
807
1923
1131
1290
1797
777
2022
999
1485
1653
837
2043
921
1653
1500
951
2013
849
1788
1317
1083
1911
771
1944
1152
1245
1800
753
2010
1017
1467
1653
822
2100
840
1659
1515
942
2007
837
1812
1314
1068
1935
768
1935
1173
1233
1803
756
1998
1044
1440
1683
807
2049
921
1611
1524
936
2016
816
1800
1344
1050
1935
777
1914
1179
1209
1803
753
2004
1053
1416
1695
804
2040
930
1608
1539
918
2013
858
1764
1365
1041
1947
786
1905
1203
1197
1809
762
1995
1068
1395
1701
792
2043
921
1584
1557
903
2004
864
1752
1383
1026
1947
798
1899
1206
1179
1839
774
1983
1089
1362
1719
846
1953
960
1599
1563
894
2010
870
1746
1380
1029
1950
789
1890
1221
1182
1839
777
1974
1065
1362
1716
801
2031
963
1563
1569
900
2007
870
1737
1392
1017
1962
807
1863
1236
1164
1815
783
1962
1092
1347
1728
792
2016
978
1548
1590
897
2010
882
1719
1416
1011
1962
819
1860
1245
1152
1854
774
1965
1107
1335
1740
786
2022
1005
1512
1608
891
2004
894
1698
1428
1002
1968
822
1839
1263
1134
1860
777
1944
1131
1305
1749
789
2004
993
1509
1614
870
2019
903
1680
1449
984
1974
834
1827
1278
1119
1875
786
1935
1143
1278
1755
774
2004
1008
1467
1647
849
2019
918
1650
1485
966
1986
849
1800
1308
1098
1890
789
1911
1173
1254
1785
777
1983
1038
1449
1659
840
2022
921
1623
1518
948
1974
855
1785
1335
1062
1917
789
1908
1188
1215
1797
786
1980
1053
1413
1686
825
2007
951
1596
1539
930
2001
870
1758
1374
1041
1929
813
1884
1212
1188
1824
777
1974
1077
1383
1707
804
2019
960
1578
1557
921
1992
888
1731
1398
1020
1950
810
1854
1230
1170
1842
786
1953
1098
1341
1722
804
2013
981
1530
1590
891
2004
903
1713
1410
1002
1959
825
1848
1260
1131
1863
789
1941
1122
1317
1734
807
1992
1002
1518
1620
867
2001
906
1671
1455
993
1971
828
1824
1275
1110
1875
786
1929
1134
1281
1770
789
1998
1014
1488
1641
861
2016
921
1650
1488
951
1986
846
1806
1308
1095
1890
789
1917
1161
1239
1782
780
1995
1011
1434
1665
843
2019
930
1626
1509
948
1989
852
1785
1335
1077
1902
795
1908
1191
1218
1806
780
1959
1056
1416
1686
825
2013
942
1602
1542
924
1995
867
1761
1371
1050
1932
795
1875
1194
1197
1824
780
1965
1077
1398
1689
816
2013
963
1566
1557
915
2001
882
1728
1377
1029
1941
810
1872
1230
1158
1821
783
1959
1098
1347
1728
810
1998
975
1554
1584
900
1986
897
1716
1416
1017
1953
825
1845
1248
1149
1854
783
1953
1110
1320
1734
795
2013
990
1524
1590
882
2010
903
1692
1440
996
1971
837
1827
1278
1119
1866
786
1938
1146
1296
1746
771
1998
1017
1494
1632
864
2007
915
1662
1470
984
1974
840
1812
1311
1107
1878
789
1920
1161
1266
1767
783
1989
1029
1464
1650
843
2013
927
1644
1497
963
1977
849
1791
1332
1080
1902
801
1902
1179
1236
1785
786
1989
1041
1446
1659
831
2019
933
1620
1518
939
1980
855
1767
1356
1065
1923
795
1893
1197
1212
1806
777
1974
1071
1395
1689
819
2019
948
1590
1557
924
1998
873
1749
1380
1041
1932
807
1860
1221
1182
1830
789
1956
1086
1368
1710
807
2016
966
1557
1569
912
1998
888
1719
1407
1011
1947
822
1851
1245
1161
1845
789
1947
1110
1332
1725
798
2010
996
1530
1593
882
2007
900
1689
1437
1002
1959
837
1827
1272
1125
1857
792
1935
1140
1287
1752
792
1998
1017
1476
1626
861
2016
909
1662
1467
975
1971
843
1809
1290
1104
1875
798
1932
1158
1275
1755
795
1992
1020
1473
1644
852
2013
921
1641
1500
963
1977
849
1800
1317
1083
1896
792
1905
1173
1245
1782
786
1980
1041
1434
1659
837
2013
936
1617
1521
948
1980
861
1770
1344
1065
1917
801
1890
1191
1221
1788
783
1983
1050
1404
1689
825
2007
954
1587
1551
927
1983
876
1746
1389
1026
1941
810
1881
1215
1185
1830
783
1962
1086
1368
1707
810
1995
972
1557
1581
909
1998
888
1716
1410
1017
1950
822
1851
1242
1152
1839
765
1956
1110
1335
1728
801
2013
990
1542
1581
897
2001
897
1704
1422
1005
1944
825
1845
1254
1140
1848
789
1950
1116
1323
1734
798
2007
990
1533
1602
882
2007
909
1695
1437
999
1962
825
1833
1266
1137
1854
786
1938
1122
1311
1743
792
2001
1002
1527
1602
876
2013
906
1686
1449
1002
1962
828
1827
1269
1125
1863
783
1938
1140
1302
1749
789
2004
1002
1512
1608
873
2016
900
1680
1455
984
1980
831
1821
1275
1119
1869
792
1944
1119
1299
1743
789
1998
1005
1503
1623
873
2016
912
1674
1452
984
1977
840
1821
1284
1113
1872
798
1914
1146
1287
1758
795
1986
1020
1476
1629
861
2025
903
1659
1476
972
1971
852
1800
1299
1101
1884
795
1917
1164
1257
1770
786
1980
1032
1449
1653
840
2013
921
1635
1500
957
1977
861
1776
1338
1068
1908
804
1905
1182
1224
1791
789
1077
1749
1089
1686
1263
1263
1686
1014
1713
1227
1335
1653
987
1833
1134
1485
1512
1086
1776
1086
1602
1446
1083
1773
1062
1674
1326
1230
1638
1011
1767
1197
1293
1623
996
1752
1053
1479
1593
972
1809
1125
1485
1434
1170
1743
1032
1680
1317
1218
1713
1044
1719
1290
1227
1665
1074
1734
1200
1356
1584
1080
1608
1146
1575
1509
1137
1725
1059
1647
1380
1170
1812
876
1782
1284
1284
1665
1002
1653
1200
1404
1593
1017
1830
1062
1563
1497
1065
1800
1008
1620
1407
1125
1767
1032
1704
1254
1275
1707
963
1776
1221
1317
1605
1029
1812
1083
1455
1548
1059
1830
1092
1593
1431
1122
1785
1020
1680
1350
1239
1617
1044
1698
1239
1314
1704
1011
1755
1188
1452
1539
1023
1809
1059
1581
1401
1122
1788
1080
1572
1386
1158
1728
1020
1725
1254
1248
1671
1011
1821
1098
1401
1605
996
1794
1101
1509
1512
1104
1761
1113
1575
1416
1176
1767
1083
1644
1335
1200
1674
1008
1773
1038
1410
1653
963
1806
1095
1503
1530
1107
1809
1032
1614
1431
1104
1782
1035
1692
1278
1197
1776
921
1749
1251
1215
1572
1017
1851
1095
1458
1548
1053
1734
1107
1560
1467
1113
1779
1047
1551
1353
1218
1755
1032
1758
1110
1308
1686
1017
1752
1200
1410
1617
978
1722
1113
1554
1572
945
1824
1083
1563
1356
1185
1674
1020
1743
1347
1113
1674
960
1764
1176
1476
1449
1029
1887
1080
1521
1647
1074
1710
1092
1602
1440
1119
1899
831
1743
1368
1149
1692
1062
1629
1257
1374
1656
984
1815
1230
1320
1581
1068
1812
1092
1551
1428
1158
1794
1038
1761
1272
1224
1716
948
1770
1311
1260
1680
1011
1812
1152
1434
1644
1002
1857
1086
1560
1452
1173
1734
1062
1668
1395
1062
1749
1005
1752
1248
1281
1617
972
1713
1185
1434
1584
990
1824
1104
1521
1503
1086
1791
1035
1671
1458
1173
1761
1053
1662
1302
1239
1692
954
1827
1101
1356
1596
1020
1821
1050
1521
1494
1050
1854
981
1599
1395
1167
1788
1017
1647
1320
1170
1728
972
1737
1215
1347
1665
855
1857
1125
1518
1461
1047
1815
1056
1656
1350
1113
1758
975
1707
1347
1179
1725
969
1791
1188
1311
1650
996
1848
1131
1485
1572
1053
1830
1032
1584
1485
1098
1842
1068
1581
1434
1182
1743
933
1755
1257
1179
1692
936
1809
1140
1413
1584
1026
1743
1116
1614
1464
1083
1794
1026
1674
1374
1116
1743
993
1740
1254
1251
1803
831
1821
1194
1365
1602
960
1806
1170
1353
1575
1059
1782
1050
1581
1440
1128
1818
981
1728
1308
1242
1671
975
1812
1182
1260
1680
990
1851
999
1509
1515
1083
1776
1089
1605
1431
1137
1788
990
1686
1359
1086
1776
1008
1701
1275
1287
1620
981
1809
1110
1455
1488
1026
1863
1101
1584
1491
1059
1752
1071
1626
1335
1158
1785
966
1746
1272
1293
1605
990
1821
1161
1398
1563
987
1818
1074
1554
1494
1068
1842
1041
1587
1452
1113
1812
1041
1716
1296
1203
1716
984
1707
1245
1338
1536
981
1839
1098
1317
1575
1059
1815
1047
1587
1434
1146
1791
945
1707
1410
1086
1761
978
1767
1224
1347
1560
912
1818
1155
1455
1536
1005
1752
1059
1590
1467
999
1809
1035
1662
1383
1089
1752
957
1731
1293
1257
1626
972
1821
1158
1431
1554
999
1818
1071
1518
1542
978
1800
978
1644
1383
1152
1767
960
1761
1299
1218
1722
999
1779
1137
1401
1563
990
1785
1137
1494
1521
1056
1785
1029
1653
1395
1098
1785
1032
1701
1344
1173
1722
996
1788
1206
1320
1689
882
1836
1140
1488
1536
1047
1839
1020
1509
1503
1089
1788
1005
1668
1362
1161
1740
1017
1731
1248
1230
1686
990
1755
1170
1407
1557
996
1851
1065
1623
1326
1104
1815
1047
1599
1395
1149
1788
1005
1680
1275
1260
1719
972
1788
1170
1320
1620
987
1944
1050
1515
1575
1065
1830
1050
1623
1470
1017
1833
1005
1740
1290
1221
1737
927
1758
1239
1269
1665
978
1875
1095
1440
1584
1005
1875
1029
1584
1473
1113
1785
1011
1725
1221
1188
1782
942
1758
1257
1284
1677
990
1809
1158
1422
1587
1008
1797
1074
1560
1491
1092
1806
1038
1668
1269
1143
1800
996
1671
1317
1257
1668
1026
1734
1203
1383
1629
987
1875
978
1539
1566
1011
1848
1029
1614
1419
1116
1797
939
1719
1428
1077
1776
987
1734
1179
1338
1707
846
1851
1173
1455
1560
1005
1797
1035
1584
1365
1125
1824
963
1722
1332
1188
1788
825
1812
1230
1293
1671
951
1830
1179
1413
1584
1059
1797
1026
1593
1497
1128
1782
1059
1641
1311
1167
1815
897
1779
1260
1236
1725
1002
1806
1137
1428
1560
972
1854
1071
1524
1512
966
1827
1041
1677
1395
1107
1833
990
1722
1302
1182
1752
948
1824
1164
1335
1689
867
1836
1128
1479
1527
1011
1878
1005
1569
1467
1098
1803
1002
1683
1356
1140
1740
960
1812
1215
1242
1686
966
1848
1107
1443
1599
978
1854
1008
1569
1509
1041
1848
960
1821
1266
1206
1824
951
1749
1182
1263
1674
957
1824
1122
1398
1659
921
1851
1092
1527
1485
1002
1881
1011
1623
1383
1155
1824
915
1731
1281
1215
1791
819
1863
1197
1329
1596
927
1887
1089
1473
1590
960
1896
1032
1653
1275
1122
1890
993
1731
1290
1194
1809
927
1788
1305
1197
1719
948
1833
1203
1398
1683
939
1887
1071
1266
1551
1074
1857
1035
1539
1383
1146
1764
837
1782
1305
1140
1743
948
1863
1095
1416
1650
879
1929
1014
1551
1503
969
1854
978
1743
1260
1134
1842
936
1734
1311
1194
1761
870
1863
1146
1329
1635
960
1908
1089
1518
1491
1041
1905
987
1659
1326
1134
1836
960
1716
1329
1128
1803
930
1797
1197
1287
1725
753
1860
1134
1431
1635
930
1941
894
1611
1503
1014
1866
1077
1515
1395
1179
1818
924
1788
1233
1221
1725
978
1770
1161
1458
1602
918
1929
1074
1287
1608
1059
1878
987
1659
1401
1110
1824
963
1770
1209
1239
1779
942
1752
1206
1374
1656
966
1800
1101
1512
1536
1005
1902
1023
1638
1431
1176
1599
1011
1767
1326
1104
1770
945
1884
1188
1365
1629
918
1875
1107
1434
1548
975
2004
948
1638
1503
1056
1872
897
1746
1344
1161
1776
984
1785
1233
1293
1707
945
1830
1110
1437
1617
960
1932
1017
1536
1542
1047
1869
891
1740
1374
1134
1821
921
1821
1119
1194
1746
918
1869
1119
1413
1521
954
1923
1035
1554
1512
1077
1833
1038
1626
1386
1119
1848
894
1800
1296
1158
1710
921
1860
1179
1269
1719
948
1875
1074
1500
1551
993
1914
990
1608
1422
1080
1866
999
1674
1242
1188
1776
909
1830
1194
1335
1584
948
1899
1068
1491
1587
957
1803
1044
1665
1464
1050
1863
921
1746
1314
1149
1758
882
1860
1215
1314
1683
894
1905
1119
1425
1614
939
1914
1008
1593
1512
1077
1833
954
1746
1332
1110
1839
891
1863
1167
1284
1719
810
1935
1143
1359
1668
942
1899
1035
1572
1572
936
1977
807
1743
1437
1062
1911
918
1800
1266
1134
1785
876
1863
1161
1302
1710
918
1836
1065
1482
1593
990
1890
993
1653
1455
1023
1941
912
1779
1362
1128
1836
870
1833
1203
1347
1725
813
1935
1110
1398
1635
888
1944
1014
1587
1539
999
1932
960
1755
1347
1077
1872
876
1812
1296
1194
1677
873
1917
1143
1350
1665
843
1944
1050
1542
1533
942
1968
966
1650
1419
1068
1929
915
1761
1347
1107
1656
894
1875
1191
1275
1731
822
1923
1107
1446
1632
897
1929
999
1584
1467
1002
1917
870
1683
1383
1101
1872
873
1857
1242
1188
1752
837
1893
1098
1317
1713
888
1923
1029
1530
1557
954
1923
948
1587
1485
1032
1917
951
1680
1308
1158
1803
924
1776
1200
1293
1707
861
1935
1089
1434
1602
906
1944
948
1602
1644
852
1959
966
1674
1368
1107
1884
771
1866
1245
1245
1761
864
1914
1122
1371
1782
720
1941
1059
1527
1587
957
1956
930
1692
1452
978
1923
873
1761
1293
1188
1815
867
1821
1191
1266
1770
813
1914
1011
1497
1605
957
1944
972
1623
1503
978
1875
924
1743
1293
1128
1860
873
1842
1206
1266
1701
858
1932
1056
1422
1653
897
1950
1038
1524
1461
972
1932
897
1692
1398
1089
1887
909
1800
1260
1212
1749
852
1899
1155
1344
1689
861
1950
1017
1482
1599
861
1971
981
1683
1431
1017
1932
897
1782
1308
1119
1845
831
1884
1209
1257
1746
885
1899
1074
1446
1629
837
2007
963
1644
1488
987
1917
912
1737
1359
1089
1860
861
1908
1191
1188
1749
864
1941
1089
1377
1665
867
1947
981
1569
1563
918
1965
945
1671
1398
1059
1890
855
1845
1218
1179
1806
819
1905
1140
1335
1692
849
1959
990
1518
1608
885
1986
984
1662
1488
1011
1917
870
1794
1302
1092
1890
858
1908
1200
1191
1758
846
1932
1038
1494
1587
879
1989
954
1599
1524
987
1953
909
1725
1419
1044
1908
858
1863
1179
1224
1809
831
1917
1095
1380
1680
837
1965
1002
1506
1572
915
1980
936
1680
1425
1044
1941
852
1812
1248
1176
1836
837
1911
1131
1278
1737
801
1971
1071
1482
1596
855
2016
948
1626
1521
981
1968
867
1788
1299
1104
1872
846
1878
1188
1224
1788
840
1965
1095
1380
1665
900
1896
1029
1557
1590
903
1953
942
1656
1404
1050
1914
867
1815
1233
1161
1860
783
1911
1086
1332
1719
846
1869
1014
1515
1566
909
1986
951
1605
1500
987
1938
861
1773
1335
1152
1809
903
1812
1212
1242
1710
846
1932
1089
1476
1650
843
1962
1023
1572
1548
954
1998
846
1719
1404
1080
1947
840
1887
1206
1191
1824
810
1929
1104
1335
1716
852
1959
1011
1545
1596
909
1971
975
1611
1461
1029
1959
813
1806
1308
1137
1893
828
1869
1194
1263
1764
753
1965
1053
1455
1647
855
1974
975
1620
1494
1005
1911
894
1761
1353
1080
1875
840
1872
1203
1224
1752
810
1935
1071
1419
1665
879
1938
918
1533
1569
954
1962
954
1683
1425
1068
1896
894
1821
1239
1185
1803
777
1917
1131
1356
1725
828
1953
981
1542
1551
918
2004
951
1668
1485
1083
1839
900
1824
1242
1119
1872
795
1860
1167
1287
1722
837
1989
1068
1470
1608
885
2010
939
1599
1482
981
1971
888
1776
1344
1116
1905
801
1896
1227
1233
1773
822
1962
1104
1407
1659
843
1992
972
1653
1404
999
1977
843
1737
1422
1050
1938
855
1752
1239
1245
1752
828
1944
1062
1320
1755
807
1902
1005
1506
1599
918
1995
939
1674
1422
1026
1920
897
1797
1296
1149
1830
816
1899
1167
1287
1671
801
1950
1074
1449
1632
876
1977
939
1608
1500
948
1983
828
1776
1389
1131
1863
783
1890
1212
1224
1776
822
1884
1110
1455
1629
795
1989
996
1566
1497
978
1971
927
1665
1437
1044
1935
852
1827
1272
1032
1866
816
1935
1170
1239
1755
834
1953
1023
1500
1602
915
1950
903
1662
1503
990
1980
879
1767
1341
1113
1878
816
1905
1206
1224
1812
792
1968
1038
1434
1683
873
1968
984
1572
1536
936
1992
942
1689
1374
1068
1911
843
1836
1269
1125
1839
822
1932
1167
1335
1752
831
1962
987
1494
1635
822
2001
963
1641
1485
981
1959
846
1797
1413
1020
1914
852
1872
1206
1218
1743
837
1962
1047
1380
1716
837
1992
993
1578
1551
969
1872
945
1713
1407
1029
1929
864
1860
1260
1152
1842
816
1926
1104
1335
1764
798
1965
1041
1509
1605
891
2025
939
1662
1461
1008
1968
867
1827
1326
1059
1893
822
1896
1179
1245
1785
819
1935
1074
1455
1641
891
1944
966
1581
1545
948
1989
891
1725
1308
1068
1989
807
1881
1239
1191
1845
759
1956
1092
1326
1701
789
1965
1023
1488
1590
924
1992
909
1662
1434
1017
1938
849
1833
1278
1119
1890
798
1971
1131
1299
1755
783
1983
1014
1482
1638
867
2025
921
1605
1500
987
1980
873
1797
1305
1110
1878
804
1908
1245
1203
1794
792
1956
1074
1425
1659
855
1989
951
1617
1482
966
2007
882
1746
1335
1077
1950
846
1887
1164
1203
1839
801
1893
1125
1389
1731
780
1989
978
1545
1578
921
1986
915
1698
1404
966
1941
822
1854
1266
1152
1845
816
1917
1137
1302
1761
840
1959
1014
1518
1614
882
1980
927
1644
1539
951
1977
852
1800
1308
1104
1830
834
1926
1158
1266
1770
735
1986
1053
1452
1647
816
2001
909
1650
1512
981
1953
921
1794
1338
1083
1899
837
1845
1206
1230
1746
795
1974
1074
1398
1674
822
1968
996
1545
1554
936
1950
849
1701
1422
1077
1899
834
1845
1239
1173
1827
807
1926
1140
1347
1746
846
1989
1029
1521
1608
888
1956
912
1707
1473
1023
1911
897
1815
1293
1128
1833
837
1893
1161
1260
1731
888
1908
1134
1392
1650
888
1992
978
1605
1500
981
1947
900
1836
1212
1113
1896
828
1875
1167
1197
1791
828
1947
1047
1356
1665
816
1959
981
1593
1530
954
1977
921
1710
1410
1047
1923
798
1839
1233
1182
1794
792
1923
1125
1353
1710
813
1968
1068
1530
1587
933
2031
909
1695
1455
1017
1932
864
1800
1218
1122
1890
825
1899
1164
1263
1749
840
1938
1059
1452
1638
888
1959
951
1608
1533
978
1929
879
1737
1362
1083
1902
831
1860
1245
1179
1845
771
1926
1125
1377
1695
816
2001
1017
1551
1557
939
1995
864
1722
1425
1050
1905
867
1830
1251
1161
1842
855
1917
1128
1302
1725
837
1935
1023
1488
1614
900
1953
951
1680
1383
1020
1950
876
1776
1326
1092
1884
828
1938
1104
1284
1782
810
1974
1008
1362
1605
879
1959
1026
1527
1569
975
1935
918
1758
1305
1074
1935
858
1779
1260
1185
1818
828
1932
1137
1311
1752
750
1974
1014
1530
1584
924
1965
936
1659
1419
1029
1929
945
1692
1329
1152
1854
852
1890
1179
1308
1671
819
1935
1044
1464
1653
912
1995
972
1614
1512
996
1971
846
1791
1311
1068
1896
837
1854
1206
1212
1791
819
1947
1095
1341
1611
849
1989
978
1617
1425
978
1980
918
1719
1467
993
1953
822
1854
1227
1218
1761
822
1935
1131
1335
1725
807
1980
1050
1467
1587
921
2010
924
1689
1446
1050
1881
885
1800
1302
1092
1839
843
1914
1149
1296
1731
825
1971
1029
1476
1650
873
1974
957
1626
1515
918
1983
888
1773
1350
1092
1896
768
1857
1230
1251
1776
816
1965
1074
1368
1659
867
2070
807
1626
1551
960
1941
891
1761
1374
1059
1914
825
1896
1209
1203
1806
819
1938
1095
1383
1680
798
1980
1008
1473
1596
909
1950
903
1701
1443
1002
1980
849
1818
1236
1128
1851
831
1857
1167
1314
1722
807
1965
996
1482
1638
903
1986
957
1596
1503
945
1956
816
1812
1311
1107
1932
786
1923
1170
1200
1821
762
1959
1068
1389
1728
789
1971
963
1590
1560
948
1962
888
1704
1413
1050
1941
819
1830
1188
1218
1854
813
1929
1128
1341
1743
828
1977
1029
1527
1587
945
2022
900
1659
1494
1020
1953
852
1911
1173
1176
1884
819
1959
1098
1302
1743
801
1971
1020
1455
1641
903
1947
846
1695
1506
960
1941
861
1791
1344
1065
1905
813
1926
1188
1251
1809
792
1968
1083
1455
1650
849
2028
924
1596
1545
963
1908
915
1725
1389
1047
1962
777
1893
1299
1098
1854
813
1893
1095
1380
1695
807
2001
996
1539
1557
846
2043
921
1788
1326
1032
1935
789
1848
1263
1176
1830
759
1935
1167
1344
1629
813
1998
1014
1497
1608
867
2016
879
1659
1575
801
1959
855
1827
1242
1137
1905
807
1908
1182
1254
1731
834
1989
1047
1458
1608
840
2013
960
1617
1536
930
2001
900
1779
1362
1065
1914
891
1776
1209
1236
1818
801
1965
1092
1356
1701
819
2004
966
1611
1428
918
2010
900
1719
1410
1071
1926
840
1854
1254
1140
1767
858
1905
1119
1335
1725
831
1878
1032
1569
1548
888
1992
936
1734
1428
987
1971
855
1812
1314
1104
1872
819
1917
1158
1314
1692
807
1977
1038
1461
1638
795
1998
939
1638
1509
1017
1896
897
1782
1359
1086
1884
783
1899
1203
1221
1773
786
1935
1101
1317
1737
810
2022
987
1557
1566
909
1998
903
1689
1413
1023
2031
729
1872
1260
1149
1848
771
1941
1134
1266
1755
825
2052
975
1527
1629
897
2016
930
1641
1476
1011
1962
858
1758
1275
1107
1857
816
1911
1140
1248
1776
879
1932
1068
1458
1581
852
2025
870
1629
1518
951
1983
909
1740
1404
1086
1929
825
1812
1224
1200
1803
798
1923
1074
1395
1671
831
2007
969
1581
1596
918
1983
867
1734
1386
1038
1995
828
1860
1245
1191
1842
825
1923
1143
1347
1701
798
1986
957
1527
1590
912
1965
921
1722
1386
1014
1983
861
1818
1236
1158
1854
786
1929
1107
1296
1764
801
2013
1008
1449
1650
861
1956
984
1584
1497
954
2022
828
1791
1371
1014
1908
900
1851
1239
1233
1839
744
1953
1080
1350
1716
762
2031
978
1575
1587
930
2001
912
1710
1407
1071
1875
849
1851
1293
1152
1851
798
1947
1107
1290
1707
804
1998
1008
1644
1506
849
2037
930
1677
1464
1023
1827
876
1833
1308
1101
1896
771
1941
1191
1236
1788
795
2004
1053
1425
1653
852
2013
954
1590
1575
852
1992
864
1791
1350
1056
1935
819
1914
1161
1218
1812
822
2001
1083
1374
1656
810
2019
993
1554
1518
876
2031
894
1683
1419
1023
1947
819
1866
1233
1155
1815
825
1956
1110
1326
1743
795
2031
975
1536
1584
912
2019
837
1704
1488
933
1944
864
1818
1245
1125
1881
774
1953
1131
1305
1761
771
2001
1056
1443
1662
831
2004
927
1641
1524
849
2031
876
1782
1371
1023
1911
816
1905
1209
1176
1710
747
2001
1077
1383
1701
870
1830
1008
1575
1593
891
2031
867
1719
1419
1002
1974
813
1719
1263
1146
1875
777
1977
1125
1284
1659
789
2022
999
1512
1584
879
2022
909
1659
1458
915
2013
843
1806
1305
1068
1929
723
1956
1185
1242
1788
813
1896
1056
1443
1665
825
2037
975
1581
1560
1017
1932
861
1794
1380
1059
1938
786
1893
1254
1119
1827
843
1920
1116
1377
1707
801
2013
978
1536
1551
882
2007
915
1677
1431
1017
1956
867
1854
1218
1101
1851
792
1950
1128
1290
1740
747
2025
1011
1494
1590
858
2070
879
1647
1494
969
1977
816
1842
1362
1044
1920
801
1917
1185
1221
1779
774
1992
1059
1413
1665
837
2058
888
1629
1533
897
2004
882
1731
1380
1038
1899
801
1917
1209
1173
1857
783
1950
1092
1335
1731
771
2019
954
1572
1548
915
2013
891
1701
1452
1011
2004
807
1833
1278
1140
1902
744
1950
1170
1311
1701
822
2001
1041
1461
1662
816
1971
942
1659
1506
951
2016
843
1791
1350
1053
1938
759
1929
1158
1230
1839
786
2022
1023
1401
1701
840
2013
978
1563
1554
912
2007
852
1743
1395
1014
1968
828
1830
1203
1185
1836
783
1950
1104
1317
1743
741
2046
966
1467
1578
858
2022
915
1650
1491
975
2001
840
1764
1350
1026
1944
783
1911
1158
1269
1788
780
1983
1011
1488
1641
846
2046
930
1629
1554
945
1971
870
1767
1329
1005
1890
816
1869
1224
1209
1830
717
1986
1116
1377
1686
810
2073
921
1527
1599
885
2016
885
1650
1461
999
2001
819
1830
1287
1128
1866
768
1923
1149
1299
1698
777
2031
939
1512
1650
852
2037
876
1659
1515
960
1974
834
1824
1344
1071
1893
813
1917
1164
1239
1806
753
2001
1071
1392
1677
822
2031
945
1560
1563
900
1992
891
1740
1395
1017
1971
816
1866
1242
1176
1857
807
1962
1074
1332
1713
810
1995
909
1560
1620
909
1989
900
1695
1470
963
1977
909
1770
1308
1134
1890
792
1947
1173
1251
1764
738
2028
1041
1458
1692
792
2058
906
1638
1536
921
2016
891
1758
1311
1026
1884
819
1974
1143
1227
1824
771
1971
1047
1404
1665
807
2061
972
1593
1584
912
1983
873
1743
1419
993
1884
843
1878
1227
1161
1872
777
1947
1122
1317
1770
735
2040
1011
1500
1638
870
2025
849
1686
1482
972
2004
804
1728
1323
1116
1911
777
1941
1092
1281
1791
780
2004
1035
1431
1686
768
2061
945
1620
1536
924
2007
885
1608
1416
1056
1956
804
1890
1224
1143
1836
789
1953
1086
1377
1848
615
2043
978
1560
1587
876
2067
912
1716
1410
1011
1980
858
1815
1269
1152
1890
708
1965
1161
1254
1794
744
2025
969
1488
1680
846
2055
918
1662
1524
912
2019
852
1809
1338
1086
1878
810
1914
1164
1230
1797
816
1980
1071
1413
1695
858
1944
924
1602
1563
903
2064
837
1746
1395
1032
1965
804
1941
1224
1176
1857
801
1905
1104
1359
1734
783
2016
984
1563
1539
897
2076
891
1695
1455
981
2025
792
1851
1296
1101
1896
759
1905
1155
1293
1755
774
1971
981
1479
1665
846
2070
897
1617
1527
909
1992
873
1740
1350
1053
1941
759
1902
1200
1203
1818
822
1851
1113
1374
1659
813
2031
942
1590
1554
873
2004
873
1641
1449
993
1998
822
1851
1239
1146
1866
780
2013
1005
1305
1776
762
1992
1020
1488
1632
846
2013
903
1683
1464
957
1965
828
1818
1302
1074
1914
771
1944
1161
1185
1779
687
2016
1062
1413
1701
807
2037
945
1629
1527
945
1998
873
1761
1353
1026
1959
807
1887
1233
1164
1902
702
1986
1065
1362
1716
792
2019
978
1566
1623
840
2034
882
1707
1425
963
1989
810
1848
1263
1089
1890
801
1926
1137
1263
1782
801
1941
1032
1479
1656
858
2013
918
1662
1518
981
2025
825
1815
1377
1062
1896
801
1911
1185
1212
1815
768
1989
1032
1407
1719
801
2019
960
1566
1581
912
2013
873
1743
1434
993
1965
855
1794
1263
1179
1848
783
1962
1068
1344
1728
768
2031
1008
1479
1578
873
2019
912
1680
1470
1002
1986
855
1830
1314
1032
1893
786
1938
1155
1236
1809
780
2025
951
1497
1623
828
2034
930
1638
1518
921
2007
867
1746
1428
963
2010
705
1929
1230
1197
1833
789
1971
1011
1371
1710
831
1971
978
1575
1611
816
2010
981
1629
1452
1002
1953
825
1830
1248
1116
1788
765
1968
1098
1311
1740
792
2019
975
1503
1611
894
2019
906
1659
1527
972
2004
795
1833
1296
1089
1911
792
1938
1128
1242
1845
738
1899
1053
1425
1659
810
2034
945
1587
1569
903
2079
843
1773
1395
999
1956
798
1881
1233
1188
1845
807
1983
1044
1323
1737
792
2031
900
1563
1599
900
2001
963
1644
1449
999
1977
825
1824
1293
1116
1875
774
1926
1122
1284
1731
813
1998
1038
1473
1632
864
1941
924
1674
1542
918
2016
840
1788
1344
1056
1881
792
1950
1188
1230
1824
768
1944
1068
1407
1701
813
2079
852
1542
1608
945
1989
909
1725
1392
1011
1893
834
1899
1185
1188
1830
765
1953
1086
1350
1743
783
1995
996
1536
1593
849
2106
849
1704
1443
960
1968
831
1824
1299
1092
1896
795
1920
1107
1293
1785
798
1998
1011
1458
1662
864
1968
903
1629
1500
906
1998
873
1797
1311
1062
1950
798
1908
1218
1215
1818
846
1941
1065
1383
1710
807
2025
960
1551
1569
924
2016
849
1746
1431
1002
1971
801
1854
1269
1182
1878
774
1953
1149
1314
1755
756
1974
1053
1503
1647
855
2034
879
1701
1434
978
1977
828
1773
1335
1080
1905
777
1905
1152
1182
1791
786
2043
1050
1440
1737
756
2022
924
1638
1533
942
2007
846
1779
1365
1047
1890
825
1902
1215
1209
1821
801
1977
1062
1374
1644
804
2052
942
1536
1617
867
2010
894
1731
1383
978
1995
825
1857
1266
1140
1839
783
1956
1119
1311
1731
756
2010
1008
1500
1629
876
2016
897
1680
1521
924
1980
879
1806
1296
1089
1905
792
1935
1260
1143
1791
783
1992
1047
1374
1680
825
1998
963
1587
1548
891
2028
876
1752
1374
1047
1947
795
1884
1191
1194
1866
660
1992
1098
1365
1740
819
1971
987
1593
1524
918
2019
888
1734
1368
1044
1986
774
1848
1263
999
1842
777
1968
1143
1284
1752
825
2010
987
1446
1644
873
2013
930
1584
1512
951
2034
768
1815
1344
1083
1914
690
1938
1191
1221
1818
756
1947
1053
1428
1695
816
2082
885
1614
1557
921
2001
870
1770
1308
1071
1974
810
1869
1236
1191
1737
819
1971
1101
1347
1722
843
1947
987
1512
1593
861
2028
867
1707
1458
942
1959
855
1848
1296
1098
1863
774
1923
1146
1293
1773
810
1956
1023
1461
1668
816
2025
927
1578
1536
954
1965
867
1782
1362
1107
1875
801
1905
1197
1266
1710
765
2004
1077
1401
1698
783
2064
954
1587
1548
924
1959
870
1719
1413
1032
1914
828
1899
1224
1158
1830
777
1989
1041
1350
1758
783
1989
999
1527
1581
867
2043
996
1548
1476
996
1986
834
1836
1311
1104
1899
738
1845
1125
1248
1770
783
2049
993
1452
1668
837
2031
924
1497
1539
963
1974
861
1755
1359
1050
1935
834
1815
1224
1206
1830
810
1923
1095
1395
1710
795
2022
960
1524
1590
909
2007
882
1671
1428
1032
1968
816
1911
1212
1158
1857
774
1950
1125
1287
1764
798
2010
1002
1473
1590
882
2016
906
1719
1407
978
1983
900
1698
1317
1158
1908
801
1902
1233
1224
1788
783
2019
951
1476
1656
840
2019
939
1644
1533
942
1968
870
1752
1380
1077
1941
801
1887
1218
1164
1854
738
2007
1044
1380
1689
813
2034
981
1518
1578
876
2016
870
1755
1389
1074
1953
873
1830
1269
1164
1860
744
1965
1134
1317
1713
777
1974
1032
1533
1611
888
2052
843
1671
1476
990
1947
846
1794
1383
1065
1890
780
1929
1116
1263
1812
735
1980
1017
1416
1677
831
2052
918
1629
1521
927
1905
873
1800
1344
1050
1920
798
1920
1203
1212
1809
798
1947
1110
1344
1713
768
1986
987
1575
1569
921
1941
900
1728
1404
1023
1965
768
1851
1257
1149
1866
702
1971
1125
1320
1758
744
2031
1032
1518
1635
867
1974
939
1680
1482
966
2001
783
1827
1302
1080
1866
810
1890
1173
1263
1785
843
1944
1035
1449
1671
936
1914
927
1644
1527
945
2001
849
1782
1383
1041
1941
774
1908
1119
1191
1845
789
1962
1080
1377
1722
780
2013
1002
1488
1611
894
2010
903
1695
1455
1002
2004
789
1851
1284
1200
1809
744
1953
1092
1314
1755
744
2031
1008
1515
1635
825
2031
939
1719
1437
954
2004
864
1794
1326
1104
1911
792
1869
1176
1203
1791
828
1998
1041
1440
1626
858
2001
909
1620
1509
957
2034
843
1764
1362
1059
1935
858
1839
1221
1227
1830
711
1959
1080
1386
1695
828
1929
975
1596
1491
918
2019
900
1653
1443
1014
1962
822
1866
1170
1197
1839
750
1932
1143
1311
1746
783
2001
993
1521
1614
843
2028
855
1689
1479
990
1968
849
1779
1233
1122
1884
777
1932
1080
1281
1770
780
1851
1059
1473
1656
843
1998
969
1617
1503
966
2004
846
1779
1359
1059
1935
798
1902
1275
1161
1890
711
1938
1077
1392
1689
831
1995
888
1611
1563
921
1983
840
1740
1407
1008
1968
798
1860
1290
1167
1857
798
1929
1098
1323
1746
780
1989
996
1503
1584
891
2046
891
1689
1494
984
2001
786
1845
1308
1098
1890
852
1851
1170
1212
1800
786
1941
1038
1455
1665
870
1995
960
1605
1539
951
2004
855
1761
1353
1074
1902
864
1821
1227
1212
1812
798
1926
1074
1395
1701
801
2052
921
1566
1584
909
2013
888
1695
1440
1017
1956
840
1872
1203
1170
1860
774
1968
1116
1266
1755
792
1998
1005
1503
1665
837
2034
891
1686
1488
1008
1833
891
1836
1311
1107
1893
795
1836
1071
1299
1779
789
1995
1038
1464
1629
840
2013
930
1626
1530
960
1908
873
1767
1368
1059
1938
846
1821
1209
1212
1821
807
1863
1089
1386
1710
801
2025
987
1482
1602
921
2028
810
1716
1422
1026
1968
819
1761
1284
1164
1860
813
1911
1149
1299
1794
747
2013
1062
1422
1614
864
2028
909
1635
1479
945
2007
837
1788
1344
1086
1917
801
1953
1134
1239
1770
792
1998
1041
1434
1656
885
2061
918
1632
1530
942
1998
864
1740
1368
1065
1920
765
1920
1200
1212
1851
771
1977
1074
1347
1713
810
1998
1020
1527
1614
876
2031
903
1671
1440
1005
1971
825
1788
1302
1143
1875
813
1932
1077
1317
1746
774
2004
1032
1512
1605
837
2022
864
1692
1467
978
1962
804
1845
1254
1026
1920
735
1941
1161
1248
1764
771
2013
1035
1431
1668
804
1968
930
1641
1551
876
2001
888
1749
1332
1077
1968
756
1896
1203
1233
1800
765
2040
1059
1425
1683
801
2049
930
1623
1557
933
2025
846
1755
1452
972
1968
792
1845
1254
1179
1851
789
1974
1116
1332
1731
813
2028
1035
1470
1608
861
2052
891
1689
1461
975
1980
870
1812
1221
1140
1905
735
1938
1152
1260
1815
714
2019
1029
1461
1656
789
1989
900
1647
1536
930
1995
855
1758
1344
1074
1932
795
1896
1152
1239
1794
777
1992
1041
1395
1674
849
1995
996
1599
1581
936
1974
870
1749
1386
1035
1959
792
1821
1257
1131
1881
786
1977
1131
1305
1698
810
1986
987
1551
1602
891
1989
936
1722
1479
1002
1962
759
1845
1281
1107
1869
804
1935
1179
1266
1779
795
1965
1053
1470
1647
807
2046
951
1611
1527
936
1995
891
1668
1353
1068
1908
786
1911
1158
1227
1818
732
1950
1080
1422
1671
774
2055
903
1659
1497
912
1995
876
1725
1410
1047
1989
756
1854
1230
1170
1812
744
2028
1008
1383
1707
771
2019
984
1527
1620
819
2043
906
1668
1473
1029
1953
858
1854
1269
1077
1875
828
1983
1125
1296
1761
789
1986
1041
1437
1656
873
1953
888
1698
1488
924
1956
819
1845
1296
1071
1968
681
1944
1179
1257
1713
795
2007
1035
1443
1674
828
2043
900
1605
1533
924
1944
897
1725
1371
1044
1938
