1182
1608
1251
1419
1473
1209
1608
1230
1488
1422
1233
1599
1209
1536
1377
1278
1569
1197
1560
1317
1323
1545
1188
1599
1272
1377
1488
1197
1602
1239
1449
1443
1212
1605
1209
1509
1407
1260
1587
1203
1551
1350
1302
1563
1191
1587
1302
1356
1521
1188
1593
1257
1407
1470
1218
1605
1218
1473
1437
1236
1602
1203
1527
1383
1275
1572
1203
1566
1323
1329
1560
1197
1596
1278
1374
1494
1191
1608
1251
1434
1434
1206
1608
1221
1494
1413
1254
1599
1209
1536
1365
1299
1557
1197
1569
1302
1341
1530
1191
1593
1263
1395
1479
1206
1602
1236
1467
1431
1224
1596
1209
1518
1383
1275
1572
1197
1557
1335
1314
1545
1200
1581
1284
1368
1506
1191
1596
1257
1422
1455
1221
1608
1233
1479
1416
1254
1593
1212
1527
1365
1296
1569
1203
1569
1317
1338
1530
1188
1593
1272
1386
1488
1206
1605
1239
1449
1437
1227
1596
1215
1509
1398
1269
1581
1206
1542
1350
1317
1551
1200
1572
1302
1359
1506
1194
1590
1266
1407
1458
1215
1599
1239
1470
1422
1242
1590
1221
1527
1383
1293
1569
1203
1560
1323
1329
1536
1197
1581
1272
1377
1488
1197
1596
1248
1446
1449
1230
1593
1224
1500
1410
1260
1575
1209
1545
1356
1320
1548
1212
1560
1308
1347
1518
1185
1587
1266
1404
1479
1221
1602
1239
1470
1422
1242
1593
1218
1521
1383
1281
1572
1206
1551
1332
1326
1542
1200
1575
1287
1374
1488
1203
1587
1254
1422
1449
1221
1596
1224
1491
1404
1257
1584
1221
1533
1359
1317
1557
1209
1557
1317
1347
1515
1206
1584
1263
1386
1479
1218
1590
1245
1458
1428
1227
1590
1227
1506
1392
1278
1566
1215
1545
1338
1317
1542
1206
1572
1281
1362
1500
1200
1590
1260
1419
1449
1251
1590
1236
1482
1413
1254
1575
1212
1521
1368
1305
1560
1209
1554
1317
1347
1524
1206
1587
1272
1386
1473
1215
1584
1251
1446
1437
1236
1584
1230
1509
1389
1275
1566
1218
1539
1344
1320
1539
1215
1563
1305
1368
1494
1215
1587
1269
1413
1461
1224
1578
1245
1467
1422
1248
1569
1224
1515
1380
1290
1548
1212
1560
1326
1341
1524
1218
1572
1272
1380
1479
1212
1590
1263
1437
1437
1233
1581
1230
1497
1404
1269
1581
1215
1524
1362
1308
1545
1209
1566
1314
1344
1518
1200
1584
1272
1398
1473
1212
1593
1239
1458
1431
1227
1587
1215
1506
1392
1272
1575
1209
1545
1338
1314
1545
1206
1584
1290
1359
1500
1200
1590
1260
1419
1455
1221
1596
1233
1488
1410
1251
1590
1215
1524
1374
1293
1560
1209
1557
1317
1338
1524
1197
1590
1278
1386
1470
1209
1593
1245
1449
1443
1233
1593
1221
1503
1398
1272
1569
1212
1539
1350
1311
1548
1203
1572
1299
1353
1506
1206
1590
1263
1413
1458
1221
1599
1239
1473
1422
1239
1584
1218
1518
1374
1296
1560
1212
1551
1323
1332
1527
1206
1581
1281
1374
1485
1212
1590
1248
1449
1437
1227
1587
1227
1500
1401
1275
1572
1209
1536
1356
1311
1548
1212
1566
1308
1353
1506
1203
1581
1269
1410
1455
1227
1587
1245
1467
1422
1242
1587
1230
1512
1383
1293
1557
1218
1566
1329
1326
1539
1212
1575
1284
1371
1488
1212
1593
1254
1431
1446
1227
1584
1233
1497
1407
1257
1575
1221
1533
1362
1305
1551
1209
1557
1314
1344
1512
1212
1581
1269
1392
1467
1215
1584
1251
1458
1428
1239
1584
1221
1512
1392
1281
1569
1215
1542
1344
1326
1545
1212
1572
1293
1365
1494
1209
1584
1266
1422
1449
1227
1590
1239
1479
1410
1263
1575
1224
1527
1371
1308
1551
1215
1551
1314
1341
1524
1212
1584
1275
1386
1479
1221
1587
1257
1449
1434
1233
1587
1236
1497
1398
1281
1563
1215
1542
1347
1323
1539
1215
1563
1299
1356
1497
1206
1584
1272
1416
1455
1227
1584
1239
1476
1413
1251
1581
1221
1518
1374
1296
1545
1224
1548
1326
1332
1527
1212
1575
1281
1380
1479
1215
1584
1257
1434
1440
1233
1584
1230
1494
1401
1278
1572
1218
1533
1356
1311
1542
1215
1560
1314
1359
1506
1209
1581
1272
1401
1470
1230
1587
1248
1458
1422
1245
1581
1227
1512
1383
1287
1557
1218
1548
1329
1329
1524
1212
1575
1287
1377
1488
1212
1584
1260
1425
1446
1233
1584
1242
1488
1404
1263
1578
1224
1524
1362
1308
1548
1218
1557
1314
1356
1509
1206
1572
1278
1392
1467
1221
1584
1260
1458
1428
1248
1578
1230
1512
1383
1281
1563
1224
1539
1335
1326
1533
1218
1575
1293
1362
1491
1209
1581
1269
1422
1452
1236
1587
1242
1473
1413
1263
1572
1227
1518
1371
1308
1545
1218
1551
1323
1347
1518
1221
1578
1284
1389
1470
1221
1581
1257
1446
1431
1233
1581
1245
1503
1386
1278
1560
1230
1539
1350
1320
1536
1215
1566
1299
1365
1497
1212
1581
1269
1407
1458
1230
1584
1260
1476
1416
1254
1569
1233
1512
1380
1299
1554
1224
1548
1332
1344
1524
1221
1569
1284
1383
1470
1218
1581
1257
1437
1434
1233
1581
1242
1485
1404
1272
1569
1224
1530
1359
1317
1533
1221
1557
1311
1356
1506
1215
1578
1275
1398
1458
1227
1581
1239
1467
1425
1248
1572
1236
1515
1383
1293
1554
1224
1542
1326
1335
1524
1218
1566
1293
1374
1476
1218
1578
1263
1425
1446
1239
1572
1239
1485
1407
1275
1569
1227
1521
1359
1317
1536
1215
1551
1314
1347
1509
1221
1575
1281
1398
1458
1230
1578
1254
1455
1422
1251
1569
1236
1506
1386
1296
1551
1218
1536
1341
1329
1533
1215
1560
1302
1374
1485
1218
1581
1275
1419
1449
1236
1578
1248
1479
1413
1269
1569
1230
1524
1371
1311
1533
1221
1545
1320
1341
1515
1215
1572
1284
1392
1464
1230
1572
1257
1449
1425
1248
1572
1233
1497
1395
1293
1554
1233
1536
1347
1326
1530
1224
1563
1299
1368
1482
1215
1569
1275
1410
1455
1239
1578
1260
1473
1410
1263
1560
1233
1512
1371
1305
1539
1230
1545
1326
1344
1512
1221
1569
1293
1383
1473
1224
1575
1263
1437
1431
1242
1572
1242
1497
1404
1284
1557
1221
1527
1347
1326
1533
1221
1548
1305
1362
1491
1221
1569
1284
1410
1455
1233
1578
1251
1464
1416
1260
1569
1233
1506
1377
1305
1539
1233
1545
1329
1341
1515
1221
1569
1290
1383
1476
1221
1569
1266
1437
1434
1239
1572
1248
1494
1398
1278
1557
1233
1521
1362
1320
1539
1224
1551
1311
1359
1497
1221
1566
1284
1410
1458
1236
1578
1257
1461
1416
1263
1566
1230
1503
1380
1302
1542
1233
1536
1335
1335
1515
1221
1563
1290
1368
1473
1224
1569
1269
1431
1434
1239
1569
1248
1485
1404
1272
1557
1236
1518
1356
1317
1527
1230
1542
1317
1359
1500
1227
1566
1281
1401
1455
1239
1572
1263
1461
1413
1260
1569
1236
1491
1383
1299
1542
1236
1530
1338
1332
1518
1221
1557
1302
1383
1479
1233
1569
1272
1431
1449
1242
1572
1251
1476
1407
1269
1569
1227
1521
1362
1311
1536
1227
1542
1320
1350
1509
1224
1569
1281
1395
1455
1236
1572
1266
1455
1425
1251
1569
1239
1497
1392
1293
1545
1230
1530
1338
1332
1521
1224
1560
1299
1371
1482
1227
1572
1272
1419
1446
1236
1581
1251
1470
1410
1269
1563
1242
1512
1371
1311
1536
1227
1539
1323
1350
1506
1221
1566
1284
1395
1467
1230
1566
1263
1449
1431
1248
1566
1245
1500
1392
1290
1548
1233
1527
1350
1332
1530
1224
1557
1305
1365
1485
1221
1569
1275
1410
1446
1245
1569
1248
1473
1410
1263
1563
1233
1509
1371
1305
1533
1227
1539
1323
1344
1515
1227
1569
1287
1392
1470
1227
1572
1266
1449
1431
1248
1569
1239
1494
1401
1284
1554
1227
1527
1350
1320
1530
1224
1545
1308
1359
1491
1224
1572
1281
1410
1455
1239
1572
1254
1467
1416
1260
1563
1242
1512
1377
1302
1542
1236
1542
1329
1341
1512
1221
1566
1296
1392
1476
1230
1572
1266
1443
1428
1248
1569
1245
1485
1401
1284
1560
1233
1518
1362
1326
1524
1227
1545
1308
1359
1491
1221
1563
1281
1407
1455
1245
1569
1257
1464
1413
1266
1563
1242
1500
1377
1299
1539
1233
1536
1338
1344
1521
1224
1560
1296
1389
1473
1227
1566
1272
1431
1437
1242
1569
1248
1482
1401
1278
1554
1233
1518
1365
1320
1524
1227
1542
1311
1359
1497
1230
1560
1284
1401
1464
1242
1566
1260
1455
1422
1257
1563
1239
1500
1386
1299
1548
1236
1533
1335
1335
1521
1233
1554
1296
1371
1476
1230
1563
1269
1425
1440
1248
1566
1248
1476
1413
1272
1554
1242
1518
1362
1314
1524
1233
1545
1320
1353
1506
1230
1563
1281
1401
1458
1236
1569
1266
1449
1425
1257
1560
1239
1503
1383
1296
1545
1236
1527
1338
1329
1524
1236
1557
1299
1371
1482
1224
1569
1272
1419
1443
1242
1563
1260
1476
1410
1272
1554
1245
1512
1371
1311
1524
1233
1536
1314
1353
1500
1227
1566
1284
1389
1467
1233
1566
1269
1452
1425
1251
1563
1239
1494
1389
1296
1551
1236
1530
1341
1335
1518
1230
1554
1305
1368
1482
1230
1563
1278
1416
1443
1248
1572
1257
1476
1410
1266
1554
1242
1512
1374
1317
1527
1233
1536
1323
1356
1506
1233
1557
1293
1395
1467
1239
1563
1269
1452
1431
1254
1557
1242
1497
1395
1293
1551
1233
1524
1347
1338
1527
1236
1551
1311
1371
1482
1230
1563
1281
1419
1446
1245
1569
1257
1467
1404
1275
1557
1242
1506
1368
1317
1524
1236
1530
1323
1353
1509
1227
1554
1290
1395
1464
1239
1563
1266
1440
1431
1251
1566
1248
1491
1389
1299
1551
1239
1524
1347
1332
1527
1236
1548
1305
1368
1482
1230
1569
1284
1410
1446
1251
1563
1263
1467
1407
1272
1557
1245
1512
1371
1308
1524
1242
1530
1320
1347
1503
1227
1557
1290
1392
1464
1242
1563
1266
1443
1431
1257
1554
1248
1497
1392
1299
1545
1239
1527
1353
1329
1521
1239
1545
1311
1368
1479
1227
1566
1278
1413
1449
1257
1563
1260
1467
1410
1281
1554
1245
1500
1374
1314
1527
1236
1530
1332
1344
1503
1236
1557
1296
1383
1464
1239
1560
1266
1446
1425
1245
1566
1248
1488
1395
1293
1548
1239
1518
1353
1329
1518
1233
1542
1308
1362
1488
1236
1557
1275
1410
1446
1254
1563
1263
1461
1413
1263
1557
1245
1500
1380
1317
1533
1242
1530
1326
1353
1506
1230
1557
1290
1386
1467
1236
1560
1272
1443
1431
1254
1554
1251
1482
1395
1293
1545
1239
1515
1350
1338
1524
1239
1542
1308
1368
1491
1236
1560
1281
1407
1449
1245
1566
1260
1464
1416
1272
1551
1248
1503
1383
1311
1521
1251
1530
1332
1347
1500
1236
1557
1290
1386
1464
1239
1557
1272
1437
1431
1251
1563
1254
1485
1404
1290
1545
1236
1515
1356
1338
1518
1239
1542
1323
1359
1485
1230
1554
1281
1404
1449
1251
1566
1266
1458
1410
1269
1551
1242
1506
1377
1305
1539
1236
1524
1338
1338
1509
1236
1545
1305
1380
1467
1239
1566
1281
1431
1440
1248
1554
1254
1482
1404
1281
1551
1242
1509
1365
1317
1524
1242
1533
1329
1359
1503
1236
1557
1302
1401
1458
1248
1560
1266
1449
1428
1257
1554
1251
1491
1389
1308
1539
1245
1518
1350
1332
1524
1236
1545
1308
1368
1476
1236
1557
1278
1416
1440
1254
1566
1263
1470
1410
1275
1554
1245
1500
1374
1314
1521
1236
1527
1332
1347
1503
1239
1560
1290
1392
1464
1239
1563
1275
1446
1425
1254
1557
1251
1491
1398
1293
1539
1242
1518
1350
1335
1515
1236
1542
1314
1368
1488
1239
1560
1290
1404
1446
1248
1557
1269
1458
1416
1269
1548
1254
1500
1380
1308
1533
1245
1533
1332
1347
1503
1236
1551
1296
1377
1464
1239
1557
1278
1425
1437
1251
1560
1257
1479
1398
1293
1551
1242
1503
1368
1326
1524
1242
1536
1320
1359
1491
1233
1548
1284
1398
1452
1248
1557
1266
1452
1425
1269
1545
1251
1497
1386
1305
1536
1242
1521
1347
1335
1509
1236
1542
1305
1374
1476
1233
1554
1278
1416
1440
1260
1554
1266
1476
1398
1278
1551
1248
1500
1365
1326
1515
1248
1536
1326
1356
1491
1251
1548
1293
1398
1452
1248
1557
1269
1452
1419
1269
1548
1254
1488
1395
1305
1533
1242
1521
1353
1344
1509
1248
1539
1311
1371
1473
1239
1554
1290
1419
1443
1266
1551
1263
1464
1404
1284
1542
1245
1506
1371
1317
1518
1248
1524
1326
1353
1497
1245
1545
1299
1392
1452
1251
1554
1281
1437
1425
1263
1554
1260
1488
1395
1296
1539
1251
1515
1356
1338
1506
1242
1536
1314
1365
1482
1248
1548
1287
1401
1446
1260
1551
1272
1461
1410
1272
1551
1251
1497
1374
1323
1524
1245
1524
1335
1347
1500
1245
1545
1302
1386
1467
1245
1551
1278
1431
1428
1260
1551
1263
1476
1392
1293
1542
1248
1506
1365
1323
1512
1251
1527
1320
1359
1488
1248
1545
1293
1398
1446
1254
1545
1269
1446
1419
1272
1545
1257
1491
1389
1308
1530
1248
1512
1350
1344
1512
1245
1539
1305
1380
1467
1248
1548
1281
1422
1437
1263
1551
1266
1467
1398
1290
1539
1251
1494
1374
1323
1512
1251
1530
1326
1359
1491
1251
1548
1299
1395
1461
1251
1551
1278
1440
1428
1266
1542
1263
1488
1386
1305
1533
1254
1509
1353
1344
1503
1248
1530
1320
1371
1479
1242
1545
1287
1413
1434
1260
1548
1269
1458
1413
1284
1536
1260
1503
1374
1323
1518
1248
1527
1332
1356
1494
1251
1548
1302
1389
1461
1248
1548
1275
1440
1425
1272
1545
1266
1482
1389
1302
1533
1251
1506
1356
1341
1509
1248
1527
1317
1365
1476
1254
1545
1290
1407
1449
1263
1545
1275
1458
1407
1281
1542
1257
1494
1377
1317
1521
1257
1518
1338
1350
1503
1254
1539
1299
1386
1458
1257
1554
1278
1431
1434
1266
1545
1263
1473
1395
1296
1536
1254
1500
1359
1335
1503
1251
1524
1323
1371
1485
1248
1545
1293
1398
1443
1263
1551
1269
1449
1419
1281
1548
1260
1488
1386
1311
1521
1251
1512
1344
1344
1500
1248
1539
1308
1392
1458
1251
1548
1290
1422
1431
1266
1548
1269
1467
1407
1290
1536
1254
1506
1374
1335
1506
1257
1524
1317
1365
1491
1245
1542
1296
1395
1452
1257
1545
1275
1443
1413
1275
1548
1257
1482
1386
1308
1527
1248
1518
1350
1344
1506
1251
1524
1308
1371
1464
1257
1536
1293
1410
1431
1269
1542
1272
1464
1404
1287
1536
1257
1497
1368
1326
1509
1257
1515
1323
1365
1491
1245
1539
1299
1389
1452
1263
1542
1284
1443
1410
1272
1539
1260
1482
1392
1308
1530
1251
1512
1347
1335
1497
1260
1521
1314
1377
1485
1239
1545
1287
1413
1434
1269
1545
1278
1467
1401
1284
1539
1254
1488
1380
1323
1512
1254
1518
1326
1359
1491
1251
1539
1305
1395
1446
1260
1542
1278
1437
1425
1269
1545
1263
1476
1386
1308
1530
1254
1503
1356
1338
1503
1251
1527
1320
1374
1473
1251
1539
1293
1416
1443
1269
1542
1275
1464
1407
1287
1533
1260
1497
1377
1323
1521
1254
1512
1335
1359
1494
1254
1536
1305
1386
1452
1254
1548
1281
1428
1419
1269
1539
1269
1467
1398
1299
1527
1254
1500
1353
1344
1497
1257
1530
1320
1371
1476
1257
1539
1296
1413
1440
1263
1542
1281
1458
1407
1284
1533
1266
1491
1380
1320
1521
1257
1521
1341
1350
1494
1254
1536
1308
1386
1458
1254
1548
1284
1431
1422
1278
1542
1269
1476
1392
1305
1527
1254
1506
1356
1341
1503
1248
1524
1323
1371
1482
1257
1545
1299
1404
1440
1263
1542
1278
1455
1416
1281
1533
1263
1488
1380
1317
1521
1251
1509
1338
1347
1491
1260
1524
1305
1389
1455
1254
1542
1284
1425
1419
1269
1542
1272
1470
1395
1299
1530
1260
1503
1365
1338
1503
1251
1527
1320
1374
1479
1254
1539
1296
1407
1431
1269
1536
1275
1446
1413
1272
1530
1254
1485
1380
1323
1518
1257
1515
1344
1350
1494
1251
1533
1305
1383
1455
1254
1539
1296
1422
1428
1269
1545
1272
1473
1401
1302
1527
1257
1506
1362
1335
1506
1251
1521
1323
1371
1482
1254
1536
1293
1404
1437
1266
1542
1278
1452
1410
1281
1533
1260
1494
1380
1323
1527
1251
1506
1338
1353
1491
1254
1533
1305
1386
1455
1263
1539
1287
1428
1425
1281
1536
1272
1479
1398
1302
1530
1260
1500
1356
1341
1503
1254
1521
1317
1371
1479
1254
1539
1293
1401
1443
1269
1536
1278
1452
1407
1281
1536
1260
1485
1383
1329
1512
1257
1509
1341
1362
1497
1260
1530
1290
1389
1464
1257
1542
1290
1428
1425
1275
1536
1272
1473
1398
1299
1524
1260
1497
1359
1338
1497
1266
1518
1326
1368
1479
1263
1536
1293
1410
1440
1269
1539
1278
1455
1410
1284
1530
1260
1491
1377
1326
1512
1257
1515
1341
1356
1497
1254
1539
1302
1389
1449
1260
1542
1287
1434
1416
1275
1542
1275
1470
1398
1305
1524
1257
1500
1359
1347
1497
1260
1521
1323
1368
1476
1254
1542
1296
1413
1440
1269
1536
1278
1452
1410
1290
1533
1263
1491
1374
1329
1509
1257
1512
1341
1353
1488
1263
1530
1311
1392
1446
1254
1539
1284
1434
1422
1284
1530
1266
1473
1386
1311
1521
1263
1500
1350
1347
1494
1260
1518
1317
1374
1464
1263
1533
1296
1413
1431
1272
1533
1275
1458
1404
1293
1527
1263
1494
1374
1329
1506
1260
1512
1332
1362
1485
1257
1530
1299
1392
1452
1263
1545
1287
1443
1419
1275
1533
1275
1476
1380
1311
1524
1260
1503
1350
1350
1494
1263
1521
1317
1383
1467
1260
1536
1290
1416
1434
1275
1539
1284
1464
1398
1296
1530
1269
1503
1365
1332
1509
1266
1512
1332
1362
1485
1257
1530
1302
1404
1443
1275
1530
1281
1458
1407
1281
1536
1269
1479
1383
1314
1521
1263
1503
1350
1350
1494
1260
1527
1314
1386
1464
1266
1533
1299
1422
1425
1275
1536
1281
1461
1395
1302
1521
1263
1491
1362
1335
1503
1263
1518
1332
1371
1479
1257
1533
1302
1401
1437
1275
1533
1284
1452
1410
1287
1527
1272
1485
1383
1323
1509
1263
1509
1341
1353
1491
1263
1524
1314
1383
1452
1257
1533
1287
1431
1419
1281
1536
1272
1467
1392
1305
1518
1269
1497
1356
1347
1488
1269
1515
1317
1374
1467
1263
1527
1302
1413
1434
1275
1530
1275
1455
1407
1293
1524
1266
1494
1377
1329
1509
1260
1509
1335
1356
1485
1257
1524
1311
1389
1449
1260
1536
1284
1431
1416
1284
1533
1278
1473
1392
1305
1521
1272
1497
1365
1344
1500
1263
1512
1332
1374
1467
1266
1533
1305
1407
1437
1266
1536
1284
1446
1413
1287
1530
1272
1476
1383
1317
1515
1263
1503
1347
1350
1488
1266
1515
1323
1383
1458
1266
1527
1296
1419
1431
1272
1527
1281
1458
1395
1290
1530
1269
1485
1377
1332
1506
1263
1506
1335
1362
1482
1263
1524
1308
1392
1452
1272
1536
1290
1431
1416
1284
1527
1281
1473
1395
1308
1515
1272
1500
1365
1344
1491
1263
1518
1329
1368
1464
1263
1530
1299
1401
1437
1272
1530
1284
1449
1404
1287
1524
1272
1485
1383
1323
1515
1269
1506
1341
1350
1494
1272
1521
1311
1392
1452
1263
1527
1296
1428
1425
1281
1536
1284
1458
1398
1302
1521
1266
1497
1374
1335
1500
1263
1509
1335
1362
1482
1263
1521
1299
1392
1440
1266
1530
1290
1431
1419
1284
1524
1278
1473
1392
1317
1512
1269
1500
1353
1350
1491
1266
1515
1323
1374
1467
1269
1527
1299
1413
1431
1275
1530
1281
1449
1410
1299
1521
1272
1482
1374
1326
1506
1266
1500
1341
1359
1482
1263
1524
1308
1389
1455
1260
1533
1296
1425
1422
1284
1530
1284
1467
1398
1308
1518
1266
1494
1368
1344
1497
1266
1509
1332
1365
1470
1263
1527
1302
1398
1443
1272
1530
1284
1443
1410
1284
1518
1272
1479
1380
1320
1509
1266
1500
1350
1353
1488
1266
1512
1320
1374
1464
1269
1527
1296
1410
1431
1278
1536
1281
1455
1389
1302
1521
1266
1491
1374
1332
1503
1263
1512
1338
1356
1479
1272
1521
1305
1389
1455
1263
1530
1293
1428
1422
1293
1530
1281
1473
1389
1311
1521
1266
1494
1362
1347
1497
1272
1515
1326
1374
1467
1266
1524
1302
1404
1434
1278
1527
1281
1449
1404
1296
1521
1275
1482
1380
1323
1512
1275
1503
1347
1353
1491
1269
1515
1323
1386
1452
1269
1524
1293
1416
1419
1287
1527
1284
1461
1395
1308
1512
1266
1488
1371
1338
1500
1272
1509
1329
1362
1473
1266
1527
1302
1392
1443
1272
1527
1287
1434
1413
1287
1521
1278
1473
1389
1320
1506
1269
1494
1350
1353
1488
1269
1512
1320
1374
1464
1269
1524
1305
1413
1428
1281
1515
1287
1458
1401
1302
1518
1269
1485
1374
1338
1503
1263
1509
1335
1365
1479
1266
1518
1314
1392
1452
1272
1533
1293
1425
1419
1284
1521
1287
1464
1389
1308
1512
1272
1497
1359
1341
1491
1272
1515
1326
1368
1467
1269
1524
1305
1404
1437
1275
1524
1293
1443
1410
1293
1521
1272
1479
1386
1329
1506
1275
1500
1344
1353
1488
1275
1515
1317
1383
1458
1269
1524
1290
1419
1422
1293
1521
1287
1464
1398
1302
1512
1269
1488
1368
1338
1494
1272
1503
1329
1368
1479
1269
1521
1308
1395
1440
1272
1533
1287
1434
1419
1287
1518
1281
1476
1380
1317
1512
1272
1497
1353
1350
1488
1263
1512
1326
1377
1461
1272
1521
1290
1416
1428
1290
1527
1287
1449
1401
1299
1512
1275
1491
1374
1332
1497
1266
1500
1341
1365
1476
1269
1518
1317
1395
1443
1272
1530
1290
1425
1416
1287
1524
1284
1467
1392
1320
1515
1269
1488
1365
1350
1488
1275
1509
1332
1371
1470
1275
1524
1302
1404
1431
1278
1524
1287
1443
1404
1299
1515
1281
1482
1377
1326
1503
1272
1503
1347
1359
1485
1272
1515
1314
1386
1449
1269
1527
1293
1425
1419
1290
1521
1281
1458
1392
1308
1512
1272
1497
1365
1347
1491
1272
1503
1329
1371
1473
1275
1527
1305
1398
1431
1275
1524
1293
1440
1410
1296
1512
1278
1470
1389
1323
1509
1275
1494
1356
1356
1482
1269
1509
1323
1386
1458
1272
1527
1299
1416
1422
1284
1521
1287
1455
1395
1302
1509
1272
1485
1371
1335
1497
1278
1506
1335
1368
1476
1269
1512
1314
1395
1440
1281
1521
1293
1428
1413
1293
1515
1281
1473
1386
1326
1515
1272
1494
1356
1350
1482
1272
1506
1329
1380
1464
1275
1521
1302
1413
1428
1287
1524
1287
1443
1407
1299
1512
1272
1479
1377
1338
1497
1272
1500
1341
1368
1479
1275
1515
1311
1389
1446
1278
1521
1296
1425
1422
1296
1521
1290
1461
1389
1311
1512
1272
1488
1368
1350
1485
1272
1506
1326
1371
1473
1275
1521
1308
1401
1434
1284
1524
1287
1440
1404
1290
1512
1281
1479
1380
1326
1506
1272
1497
1344
1359
1476
1278
1509
1320
1389
1449
1281
1521
1299
1422
1422
1287
1521
1284
1452
1392
1308
1515
1275
1485
1365
1341
1497
1275
1506
1332
1368
1473
1278
1524
1308
1395
1437
1284
1530
1293
1440
1407
1296
1512
1284
1479
1383
1323
1506
1272
1494
1353
1362
1482
1284
1512
1329
1380
1452
1275
1521
1305
1410
1425
1296
1518
1284
1452
1392
1302
1512
1275
1485
1371
1332
1491
1281
1503
1341
1365
1476
1275
1515
1308
1398
1437
1275
1521
1296
1434
1413
1293
1515
1281
1473
1383
1317
1506
1275
1488
1362
1347
1485
1272
1509
1326
1377
1455
1275
1515
1305
1416
1428
1284
1524
1293
1446
1395
1299
1515
1275
1479
1380
1341
1497
1275
1497
1338
1362
1473
1278
1512
1311
1395
1449
1281
1518
1296
1425
1416
1299
1515
1287
1464
1395
1311
1503
1278
1488
1362
1350
1479
1272
1512
1329
1377
1461
1278
1515
1302
1407
1428
1278
1524
1296
1446
1404
1299
1512
1284
1479
1380
1329
1500
1278
1500
1344
1359
1476
1281
1512
1317
1386
1446
1284
1518
1302
1425
1413
1296
1512
1293
1461
1392
1308
1512
1278
1485
1362
1344
1485
1263
1503
1329
1368
1470
1281
1518
1299
1407
1440
1284
1515
1293
1443
1404
1293
1518
1281
1473
1380
1329
1500
1281
1491
1353
1362
1476
1272
1506
1317
1383
1452
1278
1515
1296
1413
1419
1296
1515
1284
1455
1395
1305
1512
1278
1485
1365
1344
1485
1275
1497
1338
1371
1470
1272
1518
1311
1398
1434
1281
1518
1293
1440
1407
1296
1515
1284
1470
1386
1329
1503
1281
1494
1350
1353
1476
1275
1509
1329
1380
1452
1278
1518
1302
1413
1422
1290
1518
1287
1452
1398
1308
1512
1275
1488
1371
1338
1491
1278
1500
1332
1371
1473
1278
1515
1308
1395
1446
1287
1518
1293
1434
1410
1302
1515
1284
1467
1383
1326
1509
1278
1485
1362
1353
1479
1278
1503
1329
1380
1452
1275
1515
1302
1404
1431
1287
1515
1290
1449
1398
1302
1512
1278
1482
1374
1341
1491
1275
1500
1341
1365
1473
1284
1512
1314
1395
1440
1281
1521
1293
1431
1410
1302
1515
1284
1461
1392
1320
1512
1278
1488
1362
1350
1482
1281
1503
1332
1377
1470
1275
1524
1311
1407
1434
1287
1515
1299
1449
1398
1299
1509
1281
1476
1368
1335
1494
1278
1497
1347
1365
1473
1281
1509
1317
1392
1446
1281
1515
1293
1431
1419
1296
1509
1290
1461
1395
1314
1509
1278
1479
1365
1353
1485
1278
1500
1326
1380
1461
1275
1515
1305
1407
1428
1290
1521
1293
1443
1401
1296
1512
1281
1470
1389
1335
1497
1275
1494
1347
1359
1479
1284
1512
1320
1383
1446
1281
1518
1296
1419
1410
1296
1515
1287
1455
1392
1311
1506
1275
1485
1365
1341
1488
1281
1497
1332
1377
1461
1281
1512
1308
1398
1434
1293
1512
1299
1437
1407
1305
1509
1281
1482
1383
1332
1494
1275
1494
1353
1362
1473
1278
1503
1320
1386
1446
1275
1509
1308
1413
1419
1296
1512
1293
1458
1386
1314
1506
1281
1482
1362
1341
1485
1281
1500
1341
1377
1464
1278
1518
1305
1398
1434
1281
1512
1299
1440
1410
1296
1518
1284
1473
1380
1332
1503
1275
1488
1356
1356
1473
1278
1500
1323
1383
1458
1275
1515
1299
1410
1419
1293
1521
1290
1464
1398
1314
1506
1278
1482
1374
1341
1488
1278
1497
1335
1368
1473
1284
1512
1308
1398
1434
1287
1515
1296
1431
1407
1296
1515
1287
1467
1380
1326
1494
1281
1494
1350
1359
1479
1284
1506
1326
1383
1449
1287
1515
1305
1413
1419
1296
1518
1293
1449
1401
1308
1503
1281
1479
1377
1344
1488
1278
1500
1341
1371
1464
1287
1509
1305
1401
1431
1287
1518
1299
1428
1407
1296
1506
1293
1467
1380
1329
1503
1278
1482
1359
1356
1470
1284
1506
1323
1386
1455
1281
1512
1302
1410
1422
1293
1512
1290
1449
1398
1317
1503
1281
1482
1368
1341
1488
1284
1500
1338
1371
1467
1278
1512
1311
1395
1434
1293
1512
1296
1437
1416
1302
1509
1290
1467
1380
1332
1500
1281
1494
1359
1359
1470
1281
1500
1329
1383
1449
1287
1521
1299
1407
1422
1296
1509
1293
1446
1395
1308
1509
1275
1476
1374
1341
1494
1281
1497
1338
1365
1464
1278
1509
1311
1395
1428
1287
1512
1299
1431
1404
1302
1515
1293
1464
1380
1326
1497
1278
1491
1353
1362
1476
1284
1506
1326
1383
1455
1281
1515
1302
1413
1416
1296
1503
1290
1455
1398
1311
1500
1290
1479
1368
1344
1491
1284
1500
1335
1371
1464
1284
1509
1314
1398
1437
1284
1521
1299
1434
1407
1308
1509
1293
1464
1383
1326
1497
1284
1494
1356
1359
1470
1275
1503
1323
1380
1449
1287
1518
1308
1416
1428
1299
1506
1293
1449
1398
1314
1503
1284
1482
1374
1347
1488
1284
1500
1335
1371
1461
1287
1512
1314
1395
1431
1290
1512
1296
1440
1413
1302
1509
1290
1464
1380
1332
1494
1287
1491
1353
1356
1476
1284
1503
1326
1383
1452
1290
1512
1299
1410
1419
1296
1509
1290
1455
1395
1323
1497
1284
1479
1371
1347
1485
1284
1497
1335
1371
1467
1287
1512
1311
1395
1434
1293
1509
1302
1434
1407
1299
1506
1290
1467
1386
1332
1503
1284
1491
1350
1362
1473
1281
1503
1323
1383
1446
1281
1512
1311
1416
1422
1302
1509
1290
1458
1389
1314
1494
1281
1482
1365
1347
1482
1284
1494
1335
1374
1461
1281
1512
1311
1401
1434
1293
1515
1296
1431
1404
1311
1506
1293
1464
1380
1329
1494
1287
1494
1353
1356
1470
1278
1506
1326
1392
1446
1290
1509
1305
1422
1419
1311
1506
1293
1455
1389
1317
1497
1290
1479
1362
1347
1485
1284
1503
1341
1371
1467
1284
1512
1311
1398
1431
1287
1506
1302
1443
1398
1308
1509
1287
1467
1380
1338
1494
1287
1491
1350
1362
1473
1284
1506
1323
1392
1443
1287
1506
1305
1416
1416
1302
1512
1293
1449
1395
1317
1497
1284
1479
1362
1350
1482
1290
1494
1329
1374
1464
1287
1506
1311
1404
1425
1290
1515
1296
1440
1398
1302
1503
1290
1473
1374
1335
1488
1287
1488
1350
1368
1470
1281
1503
1317
1389
1443
1290
1512
1299
1425
1407
1305
1500
1293
1455
1386
1329
1503
1284
1485
1362
1362
1476
1290
1500
1329
1383
1455
1290
1509
1311
1407
1422
1290
1509
1293
1446
1395
1311
1506
1287
1467
1380
1338
1488
1290
1494
1344
1368
1467
1284
1500
1320
1392
1440
1290
1515
1305
1425
1410
1308
1506
1296
1461
1386
1323
1497
1290
1482
1356
1359
1476
1287
1503
1335
1377
1455
1293
1509
1314
1407
1425
1296
1506
1293
1446
1395
1311
1500
1287
1473
1374
1341
1482
1290
1497
1344
1374
1467
1287
1506
1311
1398
1434
1293
1515
1305
1428
1407
1311
1500
1299
1458
1386
1329
1494
1287
1488
1356
1362
1473
1284
1500
1326
1386
1446
1293
1506
1311
1413
1422
1302
1503
1296
1452
1395
1311
1503
1290
1482
1371
1347
1482
1281
1497
1338
1374
1464
1281
1506
1320
1404
1434
1296
1506
1305
1431
1401
1308
1500
1299
1467
1377
1332
1485
1284
1485
1356
1362
1470
1290
1497
1323
1383
1446
1293
1506
1314
1413
1419
1302
1506
1299
1455
1389
1314
1494
1284
1482
1365
1356
1479
1284
1494
1338
1374
1455
1290
1506
1320
1407
1425
1296
1509
1299
1434
1404
1308
1506
1293
1473
1380
1335
1488
1287
1500
1350
1362
1461
1284
1497
1323
1392
1437
1290
1512
1305
1419
1416
1302
1503
1296
1461
1383
1326
1491
1290
1482
1362
1353
1470
1290
1497
1332
1383
1461
1290
1506
1308
1404
1428
1299
1506
1299
1443
1404
1311
1494
1287
1470
1383
1344
1485
1287
1485
1344
1365
1464
1287
1497
1323
1392
1437
1290
1506
1302
1428
1404
1305
1506
1296
1461
1389
1326
1494
1287
1479
1365
1356
1476
1290
1503
1335
1383
1452
1290
1506
1314
1407
1425
1296
1503
1299
1446
1389
1320
1497
1290
1473
1371
1350
1479
1287
1494
1341
1368
1458
1287
1497
1320
1398
1431
1299
1506
1302
1431
1401
1308
1506
1296
1461
1386
1335
1488
1287
1485
1353
1365
1467
1290
1497
1326
1386
1449
1293
1506
1305
1419
1413
1308
1503
1302
1458
1389
1317
1497
1290
1482
1368
1350
1479
1290
1494
1335
1380
1458
1287
1500
1320
1404
1422
1296
1509
1299
1434
1401
1311
1503
1293
1473
1374
1338
1485
1287
1491
1353
1365
1464
1284
1497
1326
1395
1440
1293
1503
1302
1419
1416
1314
1500
1299
1455
1389
1323
1500
1290
1473
1368
1356
1470
1284
1491
1338
1383
1452
1290
1503
1311
1404
1422
1296
1503
1299
1443
1401
1317
1494
1293
1470
1377
1344
1482
1287
1491
1350
1371
1458
1287
1491
1323
1395
1431
1293
1503
1305
1419
1413
1308
1506
1299
1458
1386
1332
1494
1287
1482
1359
1359
1476
1296
1491
1326
1380
1449
1293
1503
1308
1410
1422
1308
1503
1299
1446
1389
1314
1500
1293
1479
1371
1347
1479
1296
1488
1341
1374
1458
1293
1500
1317
1395
1434
1296
1509
1302
1434
1407
1311
1497
1302
1461
1380
1326
1491
1290
1479
1356
1365
1464
1293
1494
1329
1389
1443
1296
1503
1311
1416
1416
1305
1500
1302
1446
1386
1323
1488
1290
1479
1368
1353
1482
1287
1494
1338
1377
1455
1293
1503
1311
1407
1422
1299
1506
1305
1434
1404
1311
1494
1296
1464
1374
1338
1488
1293
1485
1350
1365
1467
1293
1491
1311
1392
1437
1296
1503
1308
1416
1413
1314
1506
1296
1452
1386
1323
1488
1287
1476
1368
1356
1476
1290
1491
1335
1386
1449
1299
1500
1314
1407
1419
1299
1497
1305
1446
1395
1311
1500
1296
1470
1371
1344
1476
1290
1482
1350
1377
1458
1296
1494
1323
1395
1437
1302
1503
1311
1422
1407
1311
1497
1296
1452
1383
1335
1488
1287
1476
1362
1365
1470
1293
1491
1335
1389
1443
1296
1500
1311
1410
1419
1302
1503
1305
1443
1395
1323
1494
1287
1473
1371
1344
1476
1290
1491
1344
1377
1455
1296
1497
1320
1401
1431
1302
1506
1305
1425
1407
1320
1494
1299
1458
1380
1335
1482
1296
1479
1362
1365
1467
1293
1494
1326
1389
1443
1299
1506
1308
1416
1413
1305
1503
1302
1458
1395
1323
1491
1296
1479
1365
1353
1476
1290
1488
1341
1386
1452
1296
1494
1320
1401
1431
1293
1503
1308
1437
1395
1311
1497
1299
1461
1377
1344
1485
1290
1482
1350
1365
1461
1293
1491
1332
1392
1437
1299
1497
1311
1416
1410
1314
1497
1296
1452
1389
1326
1485
1290
1476
1368
1362
1473
1296
1494
1341
1380
1452
1296
1497
1317
1404
1425
1302
1500
1308
1434
1392
1317
1497
1302
1467
1374
1341
1476
1290
1482
1347
1371
1458
1296
1494
1323
1392
1434
1293
1503
1305
1422
1404
1317
1500
1299
1455
1383
1329
1488
1290
1479
1359
1356
1473
1293
1497
1335
1389
1446
1293
1497
1311
1413
1416
1302
1506
1302
1443
1392
1314
1497
1293
1467
1368
1350
1479
1290
1491
1344
1377
1455
1296
1494
1326
1398
1428
1302
1500
1305
1431
1404
1311
1491
1299
1461
1374
1332
1485
1290
1479
1359
1368
1461
1296
1491
1335
1386
1446
1296
1506
1308
1419
1413
1311
1503
1296
1443
1392
1326
1491
1299
1473
1371
1356
1476
1290
1485
1344
1377
1452
1293
1497
1320
1401
1428
1299
1497
1305
1434
1401
1317
1491
1302
1461
1374
1332
1488
1296
1485
1353
1365
1464
1296
1494
1329
1392
1443
1296
1494
1308
1419
1407
1302
1500
1299
1446
1386
1323
1482
1293
1479
1368
1356
1467
1293
1488
1338
1383
1461
1302
1500
1320
1401
1428
1302
1497
1305
1434
1398
1317
1497
1296
1461
1374
1338
1482
1296
1485
1350
1365
1455
1293
1491
1329
1392
1431
1299
1500
1308
1422
1407
1308
1497
1302
1452
1386
1326
1485
1293
1482
1362
1362
1470
1293
1491
1338
1383
1452
1296
1497
1314
1404
1419
1299
1500
1305
1440
1395
1317
1494
1302
1464
1371
1341
1473
1302
1482
1353
1374
1458
1299
1491
1326
1395
1431
1299
1503
1305
1422
1407
1317
1497
1308
1455
1392
1332
1488
1296
1473
1359
1359
1467
1296
1494
1335
1392
1452
1296
1500
1311
1413
1416
1308
1497
1302
1440
1392
1326
1494
1296
1470
1371
1347
1482
1293
1479
1350
1377
1452
1302
1491
1326
1395
1434
1305
1494
1305
1425
1407
1320
1494
1296
1455
1380
1338
1482
1296
1479
1362
1362
1467
1296
1491
1329
1386
1449
1296
1503
1308
1413
1410
1314
1500
1302
1443
1395
1326
1485
1302
1470
1368
1353
1473
1296
1485
1350
1377
1452
1299
1488
1323
1398
1425
1302
1503
1302
1425
1401
1317
1497
1302
1461
1374
1335
1479
1296
1476
1353
1368
1464
1296
1494
1335
1395
1443
1296
1497
1311
1413
1413
1305
1497
1302
1446
1389
1323
1491
1296
1470
1368
1356
1470
1290
1482
1347
1380
1452
1299
1497
1317
1410
1425
1299
1503
1311
1431
1401
1320
1491
1308
1452
1374
1344
1488
1296
1473
1356
1371
1452
1299
1488
1335
1395
1443
1299
1488
1314
1422
1410
1311
1494
1299
1452
1389
1329
1485
1293
1476
1368
1359
1470
1296
1485
1341
1380
1449
1299
1491
1320
1404
1419
1308
1503
1308
1440
1401
1320
1488
1305
1455
1380
1341
1479
1299
1479
1350
1377
1461
1296
1488
1326
1389
1437
1302
1497
1308
1413
1410
1320
1494
1305
1452
1386
1329
1485
1296
1473
1362
1356
1467
1296
1491
1335
1383
1452
1302
1494
1320
1413
1416
1311
1494
1311
1437
1398
1320
1494
1299
1467
1371
1347
1479
1296
1479
1353
1377
1455
1299
1488
1329
1398
1431
1302
1500
1314
1419
1410
1314
1494
1299
1455
1389
1329
1482
1290
1473
1359
1365
1464
1299
1485
1335
1383
1443
1296
1506
1320
1410
1413
1311
1497
1305
1440
1395
1323
1494
1305
1467
1371
1347
1479
1299
1482
1344
1374
1452
1299
1485
1329
1395
1434
1308
1494
1305
1422
1410
1320
1488
1308
1461
1380
1329
1482
1302
1479
1359
1362
1458
1299
1494
1338
1392
1443
1308
1497
1317
1413
1416
1314
1491
1299
1446
1386
1323
1482
1305
1470
1374
1359
1470
1302
1485
1347
1374
1452
1308
1494
1320
1395
1425
1308
1491
1305
1431
1398
1320
1488
1308
1455
1377
1338
1479
1302
1479
1356
1368
1455
1299
1485
1332
1386
1446
1311
1491
1317
1413
1413
1314
1494
1308
1449
1392
1326
1482
1299
1476
1368
1356
1470
1293
1485
1344
1380
1449
1302
1491
1323
1401
1425
1305
1491
1314
1431
1398
1326
1494
1305
1458
1380
1338
1479
1302
1482
1356
1365
1458
1302
1488
1326
1395
1443
1302
1497
1311
1416
1410
1314
1500
1305
1440
1386
1326
1488
1296
1470
1365
1353
1470
1299
1482
1335
1380
1455
1305
1497
1320
1401
1419
1308
1491
1311
1431
1398
1323
1491
1302
1461
1374
1341
1482
1296
1476
1353
1377
1455
1305
1488
1326
1392
1437
1308
1500
1311
1413
1407
1314
1497
1305
1449
1383
1335
1488
1296
1470
1365
1365
1470
1302
1488
1338
1383
1452
1302
1500
1317
1404
1422
1314
1497
1308
1431
1398
1323
1482
1308
1461
1374
1344
1473
1299
1479
1350
1374
1452
1299
1491
1323
1395
1437
1308
1497
1308
1419
1404
1317
1488
1308
1455
1383
1332
1479
1299
1473
1359
1365
1464
1299
1488
1338
1383
1446
1308
1497
1320
1413
1416
1308
1491
1305
1437
1395
1326
1491
1302
1461
1377
1353
1476
1302
1485
1350
1377
1452
1302
1488
1323
1398
1431
1305
1494
1314
1425
1404
1320
1488
1305
1458
1383
1335
1479
1302
1479
1362
1365
1458
1305
1488
1335
1383
1449
1305
1494
1314
1407
1410
1311
1497
1308
1446
1392
1326
1485
1302
1464
1371
1353
1473
1302
1482
1347
1377
1449
1299
1491
1326
1398
1425
1305
1494
1308
1425
1407
1326
1488
1305
1452
1380
1332
1479
1302
1473
1356
1368
1464
1296
1485
1338
1389
1443
1299
1497
1314
1410
1410
1317
1485
1305
1440
1395
1329
1488
1299
1473
1368
1353
1473
1296
1482
1347
1380
1452
1305
1494
1323
1398
1425
1311
1491
1311
1425
1404
1329
1485
1302
1452
1380
1335
1479
1302
1482
1356
1365
1458
1302
1482
1338
1386
1446
1305
1500
1311
1419
1410
1317
1494
1308
1443
1389
1332
1482
1302
1467
1368
1353
1470
1299
1482
1347
1380
1449
1302
1494
1323
1401
1428
1308
1491
1308
1431
1395
1326
1488
1305
1455
1380
1347
1479
1293
1479
1356
1371
1458
1311
1485
1329
1392
1431
1308
1494
1314
1410
1413
1317
1494
1308
1446
1389
1332
1479
1302
1467
1368
1359
1464
1299
1479
1344
1383
1446
1305
1488
1320
1401
1419
1308
1494
1311
1425
1398
1329
1485
1302
1455
1374
1338
1470
1299
1476
1353
1374
1455
1305
1491
1329
1392
1434
1305
1497
1311
1413
1407
1314
1494
1314
1449
1383
1329
1485
1305
1473
1365
1362
1455
1299
1485
1341
1386
1440
1302
1488
1320
1410
1416
1311
1488
1317
1437
1392
1326
1482
1308
1461
1377
1344
1473
1302
1482
1356
1371
1446
1302
1488
1332
1401
1431
1314
1500
1314
1419
1413
1317
1491
1308
1446
1386
1332
1482
1305
1479
1362
1365
1464
1302
1485
1335
1383
1446
1305
1488
1320
1404
1416
1308
1488
1308
1431
1395
1326
1485
1311
1464
1371
1347
1470
1305
1482
1353
1374
1461
1308
1491
1326
1392
1428
1311
1491
1314
1425
1404
1317
1494
1308
1449
1380
1332
1476
1296
1476
1365
1365
1458
1302
1476
1341
1389
1437
1308
1488
1323
1407
1419
1314
1491
1305
1431
1392
1323
1485
1305
1461
1368
1353
1470
1299
1473
1350
1377
1449
1308
1488
1323
1398
1431
1302
1491
1314
1425
1401
1323
1485
1305
1452
1383
1338
1482
1302
1470
1368
1368
1464
1305
1488
1335
1392
1446
1305
1494
1317
1407
1413
1311
1497
1311
1434
1389
1329
1482
1299
1467
1377
1347
1464
1305
1473
1350
1377
1449
1305
1482
1323
1404
1428
1314
1491
1317
1422
1401
1326
1488
1305
1449
1383
1338
1479
1299
1476
1362
1368
1458
1302
1482
1332
1386
1437
1314
1491
1314
1410
1410
1314
1488
1311
1440
1389
1329
1491
1305
1467
1368
1353
1467
1308
1479
1344
1377
1443
1308
1485
1329
1395
1419
1317
1491
1314
1428
1401
1326
1491
1308
1452
1377
1338
1479
1299
1473
1362
1368
1458
1305
1485
1335
1392
1437
1302
1491
1317
1410
1416
1311
1494
1308
1431
1395
1329
1479
1305
1464
1365
1359
1470
1302
1479
1347
1383
1449
1308
1482
1326
1407
1425
1314
1488
1320
1425
1395
1323
1485
1308
1458
1377
1341
1476
1302
1479
1359
1368
1452
1305
1482
1335
1392
1440
1311
1485
1314
1410
1410
1314
1485
1314
1443
1392
1329
1482
1305
1467
1365
1362
1467
1302
1479
1341
1383
1443
1305
1491
1323
1398
1425
1308
1488
1311
1425
1395
1326
1488
1311
1452
1374
1344
1470
1305
1479
1359
1368
1449
1302
1479
1335
1392
1434
1311
1494
1320
1416
1410
1314
1494
1311
1437
1389
1332
1479
1302
1464
1368
1359
1467
1308
1482
1344
1380
1446
1308
1482
1323
1404
1422
1314
1488
1311
1431
1401
1326
1482
1305
1452
1377
1344
1479
1305
1473
1359
1374
1452
1308
1482
1332
1395
1440
1311
1494
1320
1419
1407
1314
1488
1302
1443
1383
1335
1476
1302
1467
1368
1359
1461
1305
1476
1344
1380
1440
1305
1479
1326
1404
1422
1308
1491
1311
1422
1398
1329
1485
1305
1458
1383
1344
1470
1299
1476
1356
1374
1452
1308
1479
1335
1389
1437
1311
1494
1314
1422
1407
1314
1485
1314
1446
1389
1332
1476
1302
1476
1371
1359
1461
1302
1476
1347
1383
1440
1308
1479
1329
1407
1416
1311
1488
1311
1431
1401
1332
1482
1305
1452
1377
1344
1467
1299
1479
1356
1371
1452
1305
1482
1335
1398
1431
1305
1488
1317
1413
1407
1323
1485
1311
1443
1380
1332
1479
1302
1467
1362
1356
1464
1305
1479
1341
1386
1440
1308
1485
1323
1407
1419
1314
1488
1311
1428
1401
1332
1479
1311
1455
1371
1344
1467
1299
1479
1356
1374
1452
1305
1485
1335
1392
1431
1314
1485
1317
1413
1410
1317
1488
1305
1440
1383
1338
1473
1308
1473
1362
1359
1461
1302
1476
1338
1383
1446
1314
1491
1323
1404
1425
1317
1482
1311
1431
1398
1335
1485
1308
1458
1371
1344
1470
1302
1479
1353
1377
1455
1314
1485
1332
1395
1434
1305
1494
1320
1416
1410
1323
1485
1308
1443
1383
1332
1473
1314
1467
1368
1362
1461
1302
1476
1350
1389
1437
1308
1479
1323
1407
1416
1317
1485
1311
1434
1392
1332
1479
1305
1464
1380
1350
1470
1302
1473
1359
1374
1452
1308
1479
1332
1392
1431
1311
1488
1323
1416
1410
1326
1488
1308
1449
1386
1335
1473
1308
1473
1362
1359
1464
1308
1482
1347
1392
1446
1311
1482
1320
1401
1425
1317
1488
1320
1434
1395
1329
1479
1314
1464
1377
1350
1470
1302
1470
1362
1377
1455
1308
1479
1329
1392
1431
1311
1491
1317
1416
1407
1320
1482
1308
1440
1386
1335
1476
1305
1464
1362
1359
1476
1308
1479
1344
1386
1434
1302
1485
1329
1407
1419
1317
1488
1314
1428
1392
1332
1482
1311
1452
1374
1347
1464
1302
1473
1353
1371
1452
1311
1482
1335
1395
1434
1317
1491
1317
1416
1404
1317
1479
1311
1440
1383
1335
1479
1308
1467
1365
1359
1467
1311
1476
1344
1383
1446
1317
1482
1323
1407
1419
1323
1479
1317
1434
1395
1332
1476
1311
1458
1371
1344
1467
1299
1473
1353
1374
1455
1314
1485
1338
1398
1431
1320
1488
1314
1416
1410
1320
1485
1308
1446
1383
1335
1476
1311
1467
1365
1359
1461
1299
1479
1341
1386
1443
1314
1491
1320
1407
1422
1314
1485
1311
1425
1392
1329
1473
1305
1458
1374
1347
1467
1308
1476
1356
1371
1455
1305
1476
1335
1398
1431
1311
1485
1317
1413
1401
1326
1485
1314
1440
1380
1335
1473
1311
1464
1362
1359
1464
1302
1473
1344
1389
1437
1311
1479
1323
1407
1416
1311
1491
1314
1425
1398
1332
1476
1305
1452
1377
1344
1467
1302
1473
1356
1371
1452
1311
1485
1335
1395
1434
1314
1479
1320
1419
1410
1329
1485
1311
1446
1383
1335
1473
1308
1461
1371
1362
1461
1305
1476
1353
1386
1437
1311
1485
1323
1401
1422
1317
1482
1314
1428
1395
1329
1479
1308
1455
1374
1350
1467
1302
1470
1359
1377
1449
1308
1479
1338
1395
1440
1317
1485
1314
1416
1410
1320
1482
1311
1440
1383
1338
1482
1314
1461
1365
1356
1467
1314
1473
1344
1386
1437
1311
1485
1329
1407
1416
1323
1485
1311
1428
1395
1332
1476
1308
1452
1383
1350
1473
1305
1470
1356
1374
1452
1308
1476
1338
1395
1437
1311
1488
1320
1413
1410
1317
1488
1311
1434
1389
1341
1476
1314
1458
1371
1359
1461
1305
1476
1356
1386
1443
1314
1482
1329
1401
1422
1317
1491
1311
1428
1395
1332
1476
1314
1449
1383
1344
1470
1302
1470
1362
1374
1458
1314
1482
1344
1395
1434
1314
1479
1323
1410
1407
1326
1482
1314
1434
1386
1335
1473
1308
1461
1371
1356
1461
1308
1473
1347
1383
1446
1308
1482
1329
1404
1422
1314
1482
1317
1428
1398
1326
1482
1314
1452
1380
1350
1467
1302
1470
1362
1374
1458
1305
1482
1344
1395
1434
1314
1479
1326
1410
1410
1317
1479
1314
1434
1389
1338
1476
1305
1461
1371
1353
1464
1311
1473
1356
1374
1446
1317
1482
1329
1404
1428
1317
1488
1314
1419
1404
1335
1488
1311
1443
1383
1335
1473
1314
1467
1362
1368
1455
1308
1476
1338
1386
1440
1314
1479
1323
1407
1416
1317
1479
1314
1428
1389
1335
1479
1308
1458
1371
1350
1467
1308
1473
1359
1383
1440
1308
1488
1329
1401
1428
1320
1488
1317
1416
1395
1329
1479
1314
1440
1386
1341
1470
1311
1464
1362
1365
1455
1308
1476
1341
1392
1440
1320
1479
1326
1407
1416
1320
1482
1314
1428
1392
1338
1476
1308
1452
1374
1353
1467
1308
1479
1350
1374
1440
1308
1476
1338
1398
1431
1320
1491
1317
1416
1401
1323
1482
1314
1443
1377
1344
1470
1314
1467
1362
1368
1461
1311
1476
1347
1392
1431
1317
1485
1326
1407
1419
1317
1482
1311
1425
1395
1332
1479
1308
1458
1377
1347
1464
1305
1473
1362
1377
1449
1311
1476
1332
1392
1434
1320
1482
1323
1413
1404
1323
1488
1314
1446
1380
1338
1467
1305
1464
1368
1365
1464
1308
1479
1347
1383
1443
1317
1479
1329
1407
1419
1320
1488
1317
1425
1392
1332
1476
1314
1452
1380
1347
1464
1308
1467
1353
1377
1446
1314
1479
1335
1392
1431
1320
1482
1314
1407
1410
1326
1482
1311
1440
1389
1341
1470
1311
1458
1365
1356
1458
1308
1476
1350
1389
1440
1311
1485
1329
1404
1425
1317
1488
1314
1422
1392
1326
1476
1317
1452
1374
1341
1464
1311
1467
1356
1368
1452
1317
1479
1335
1392
1431
1317
1479
1320
1416
1410
1326
1479
1314
1431
1389
1335
1476
1311
1455
1374
1359
1461
1308
1470
1356
1386
1446
1314
1479
1326
1401
1428
1314
1491
1320
1422
1401
1332
1479
1314
1446
1374
1344
1467
1311
1464
1362
1368
1452
1305
1473
1341
1389
1437
1317
1479
1320
1413
1410
1323
1479
1317
1431
1395
1338
1473
1311
1461
1371
1344
1464
1308
1470
1359
1380
1443
1311
1482
1332
1398
1431
1320
1485
1317
1416
1404
1326
1485
1311
1440
1386
1344
1467
1317
1461
1362
1362
1455
1308
1476
1353
1383
1434
1317
1476
1326
1404
1422
1326
1485
1317
1422
1401
1329
1473
1311
1449
1383
1341
1467
1308
1464
1359
1365
1458
1308
1479
1341
1389
1434
1314
1482
1326
1410
1407
1323
1479
1320
1440
1389
1338
1473
1314
1461
1368
1356
1461
1308
1473
1356
1377
1446
1317
1482
1335
1407
1425
1314
1491
1317
1416
1401
1329
1479
1314
1443
1377
1341
1470
1308
1464
1365
1371
1452
1311
1476
1344
1392
1437
1314
1473
1326
1407
1410
1323
1479
1314
1428
1392
1341
1470
1323
1449
1371
1350
1461
1311
1464
1350
1383
1434
1323
1470
1335
1407
1422
1329
1476
1323
1419
1401
1338
1473
1314
1446
1383
1347
1458
1317
1464
1362
1371
1449
1320
1464
1341
1392
1425
1323
1470
1326
1407
1407
1332
1476
1320
1431
1392
1347
1467
1317
1452
1368
1362
1452
1308
1467
1356
1386
1434
1320
1470
1332
1398
1419
1329
1470
1323
1416
1398
1338
1479
1317
1437
1383
1350
1461
1323
1458
1365
1368
1446
1320
1467
1347
1389
1434
1329
1470
1329
1401
1410
1326
1470
1323
1425
1389
1344
1470
1320
1449
1371
1353
1455
1320
1464
1362
1383
1437
1323
1476
1341
1395
1419
1326
1470
1323
1419
1398
1335
1467
1323
1434
1383
1353
1458
1317
1461
1371
1362
1449
1314
1467
1350
1395
1437
1320
1470
1332
1401
1416
1326
1473
1320
1422
1395
1338
1473
1317
1446
1380
1365
1461
1314
1464
1359
1374
1440
1317
1467
1347
1401
1422
1323
1473
1326
1413
1404
1329
1470
1326
1434
1386
1347
1461
1314
1458
1374
1362
1455
1320
1470
1353
1380
1440
1320
1473
1335
1404
1416
1332
1479
1323
1419
1392
1338
1467
1314
1440
1380
1356
1458
1320
1461
1356
1368
1452
1317
1470
1347
1395
1425
1320
1470
1332
1407
1410
1329
1479
1323
1425
1389
1341
1464
1320
1446
1374
1356
1458
1311
1467
1356
1383
1443
1323
1470
1335
1404
1428
1326
1470
1332
1410
1398
1335
1473
1323
1434
1380
1350
1467
1320
1458
1368
1362
1449
1317
1467
1347
1389
1431
1323
1476
1332
1404
1413
1335
1473
1320
1419
1389
1335
1467
1317
1449
1374
1356
1458
1317
1461
1356
1374
1440
1320
1467
1347
1395
1428
1326
1467
1329
1413
1401
1329
1473
1320
1428
1386
1344
1464
1320
1455
1368
1362
1455
1314
1467
1350
1383
1434
1320
1470
1335
1401
1422
1326
1473
1326
1422
1395
1338
1467
1320
1437
1377
1350
1458
1314
1461
1365
1368
1449
1311
1467
1350
1389
1428
1326
1470
1338
1407
1413
1329
1476
1320
1428
1395
1341
1464
1317
1446
1374
1356
1455
1323
1464
1356
1377
1443
1317
1467
1338
1398
1425
1326
1470
1323
1416
1401
1347
1461
1308
1437
1386
1353
1461
1317
1458
1371
1365
1449
1317
1467
1350
1392
1437
1323
1473
1332
1404
1419
1329
1476
1317
1419
1392
1341
1467
1314
1446
1374
1347
1458
1311
1467
1362
1377
1446
1314
1470
1338
1392
1422
1329
1470
1329
1404
1407
1335
1473
1323
1434
1389
1347
1467
1314
1449
1377
1359
1458
1311
1464
1353
1386
1440
1323
1470
1341
1401
1425
1329
1473
1326
1413
1401
1332
1473
1317
1431
1386
1341
1467
1317
1458
1374
1368
1455
1320
1470
1350
1383
1440
1323
1470
1329
1407
1416
1326
1476
1323
1422
1392
1335
1470
1320
1449
1374
1353
1458
1314
1458
1359
1368
1452
1320
1473
1344
1398
1425
1317
1476
1326
1410
1416
1329
1473
1323
1428
1389
1350
1470
1314
1449
1377
1359
1464
1317
1476
1356
1380
1440
1317
1467
1338
1401
1431
1326
1473
1326
1419
1395
1329
1476
1320
1437
1380
1347
1467
1317
1452
1365
1377
1455
1317
1470
1353
1392
1434
1320
1476
1329
1410
1422
1314
1485
1317
1425
1395
1323
1482
1308
1446
1383
1335
1476
1305
1464
1371
1353
1467
1311
1479
1347
1383
1449
1308
1488
1323
1404
1416
1308
1605
1149
1506
1380
1323
1497
1299
1455
1392
1350
1491
1287
1485
1365
1359
1464
1293
1497
1335
1380
1458
1293
1512
1305
1407
1428
1293
1506
1296
1431
1410
1299
1509
1281
1461
1383
1332
1494
1272
1479
1353
1359
1488
1278
1506
1323
1377
1449
1275
1515
1302
1416
1425
1290
1518
1287
1452
1398
1311
1506
1278
1482
1362
1344
1488
1278
1503
1329
1368
1461
1263
1521
1296
1404
1422
1290
1515
1296
1452
1401
1323
1491
1287
1479
1362
1359
1458
1299
1482
1323
1389
1440
1308
1494
1308
1413
1398
1320
1482
1305
1443
1374
1341
1467
1305
1467
1359
1365
1455
1308
1479
1338
1395
1428
1314
1479
1317
1416
1410
1320
1482
1308
1437
1383
1344
1473
1308
1461
1371
1359
1455
1311
1470
1353
1383
1443
1314
1479
1335
1404
1428
1326
1485
1311
1413
1395
1329
1476
1311
1443
1377
1344
1464
1308
1470
1368
1368
1452
1311
1482
1341
1392
1425
1320
1485
1326
1416
1413
1320
1482
1314
1431
1392
1338
1479
1308
1458
1371
1353
1455
1308
1476
1359
1380
1443
1320
1479
1332
1389
1425
1326
1482
1323
1416
1401
1332
1479
1314
1434
1377
1347
1467
1314
1464
1365
1368
1452
1308
1470
1347
1392
1434
1320
1482
1329
1407
1413
1329
1479
1320
1422
1395
1332
1473
1317
1449
1371
1347
1467
1311
1470
1356
1365
1455
1314
1473
1341
1392
1428
1320
1479
1329
1413
1410
1323
1482
1314
1428
1383
1344
1473
1311
1458
1368
1356
1458
1311
1473
1353
1377
1446
1314
1482
1332
1404
1425
1320
1473
1320
1422
1398
1335
1479
1317
1434
1383
1347
1464
1320
1458
1362
1362
1458
1311
1473
1347
1386
1434
1320
1479
1332
1410
1413
1326
1473
1323
1425
1389
1338
1476
1314
1443
1371
1359
1458
1314
1464
1359
1374
1443
1314
1479
1344
1398
1425
1323
1479
1326
1410
1410
1329
1476
1311
1428
1386
1338
1470
1320
1455
1365
1359
1455
1314
1470
1356
1377
1449
1323
1473
1335
1404
1425
1326
1473
1329
1422
1401
1332
1476
1317
1434
1377
1344
1461
1317
1464
1365
1371
1452
1311
1470
1347
1389
1437
1320
1479
1332
1407
1419
1329
1482
1317
1422
1392
1332
1470
1320
1446
1377
1350
1461
1317
1461
1356
1371
1446
1317
1467
1347
1401
1425
1326
1473
1326
1413
1410
1326
1476
1317
1434
1386
1338
1467
1317
1452
1368
1356
1458
1320
1464
1353
1377
1446
1317
1473
1335
1398
1428
1329
1467
1320
1413
1404
1335
1470
1314
1440
1383
1350
1464
1314
1458
1365
1359
1455
1314
1479
1359
1386
1434
1317
1479
1335
1407
1416
1329
1473
1320
1419
1392
1335
1470
1320
1443
1377
1353
1461
1317
1461
1359
1368
1452
1314
1473
1347
1392
1431
1329
1473
1326
1407
1419
1332
1473
1320
1428
1386
1338
1476
1320
1455
1374
1359
1458
1323
1464
1359
1377
1440
1317
1482
1338
1404
1422
1323
1476
1326
1422
1401
1329
1479
1314
1431
1380
1344
1467
1314
1452
1368
1356
1455
1311
1473
1353
1380
1440
1323
1473
1338
1407
1419
1323
1473
1329
1422
1401
1332
1470
1320
1440
1380
1353
1467
1317
1461
1362
1362
1455
1317
1473
1353
1392
1428
1320
1476
1329
1407
1413
1326
1473
1326
1428
1395
1341
1476
1317
1446
1377
1353
1464
1320
1458
1365
1368
1452
1320
1473
1344
1392
1425
1329
1476
1323
1410
1413
1335
1473
1314
1425
1392
1344
1467
1317
1449
1371
1356
1458
1320
1464
1356
1380
1443
1320
1470
1344
1398
1428
1323
1470
1323
1419
1407
1338
1473
1317
1431
1389
1353
1464
1320
1455
1362
1356
1455
1320
1467
1350
1380
1440
1317
1479
1332
1407
1416
1329
1473
1326
1419
1401
1335
1470
1320
1443
1374
1350
1458
1311
1458
1371
1365
1446
1317
1470
1350
1389
1431
1329
1476
1329
1410
1419
1329
1473
1320
1425
1389
1344
1473
1326
1446
1371
1353
1464
1320
1464
1362
1374
1449
1320
1467
1347
1398
1422
1323
1476
1326
1413
1410
1332
1470
1317
1434
1389
1338
1470
1320
1452
1371
1359
1458
1317
1464
1353
1383
1437
1323
1470
1338
1398
1419
1329
1470
1332
1413
1401
1341
1473
1314
1440
1377
1350
1464
1317
1452
1371
1359
1455
1311
1464
1350
1386
1437
1314
1479
1335
1401
1422
1335
1473
1326
1416
1395
1335
1470
1311
1440
1377
1350
1458
1317
1452
1362
1365
1446
1317
1470
1353
1392
1431
1323
1470
1338
1410
1413
1335
1470
1317
1422
1392
1341
1464
1314
1440
1371
1356
1461
1320
1461
1359
1368
1449
1320
1476
1344
1395
1428
1329
1479
1326
1413
1407
1332
1470
1317
1431
1383
1344
1473
1317
1443
1374
1359
1455
1326
1467
1359
1383
1443
1326
1470
1341
1398
1428
1329
1470
1332
1413
1404
1332
1470
1317
1431
1380
1353
1464
1317
1452
1368
1359
1446
1317
1470
1353
1383
1437
1323
1476
1338
1404
1416
1329
1476
1323
1419
1401
1332
1470
1317
1434
1377
1353
1458
1314
1455
1359
1362
1455
1317
1473
1350
1392
1437
1320
1470
1332
1407
1416
1341
1473
1326
1422
1392
1338
1470
1323
1443
1374
1353
1464
1311
1461
1359
1368
1446
1320
1470
1347
1395
1425
1326
1473
1332
1410
1416
1335
1467
1320
1422
1389
1347
1464
1314
1449
1371
1359
1461
1323
1458
1356
1371
1449
1323
1470
1347
1395
1428
1332
1470
1326
1413
1407
1335
1470
1323
1425
1383
1347
1464
1323
1446
1368
1362
1449
1320
1461
1359
1377
1440
1317
1476
1347
1404
1422
1329
1470
1329
1410
1401
1341
1476
1317
1428
1380
1347
1464
1317
1449
1362
1362
1446
1317
1467
1356
1389
1437
1320
1476
1335
1401
1410
1332
1473
1323
1422
1398
1329
1467
1317
1428
1377
1350
1455
1314
1455
1359
1365
1452
1317
1467
1353
1386
1431
1326
1470
1332
1407
1416
1332
1470
1320
1425
1395
1341
1464
1317
1437
1377
1356
1458
1317
1464
1362
1368
1446
1317
1467
1350
1395
1431
1323
1473
1335
1413
1410
1338
1473
1317
1428
1389
1344
1464
1314
1440
1374
1359
1452
1317
1458
1362
1371
1443
1317
1467
1350
1398
1422
1323
1473
1329
1413
1410
1332
1470
1320
1431
1392
1341
1464
1323
1446
1371
1359
1461
1323
1461
1353
1383
1440
1323
1473
1341
1395
1422
1329
1467
1326
1413
1404
1335
1470
1317
1428
1383
1344
1461
1317
1455
1368
1365
1449
1320
1461
1359
1383
1437
1326
1473
1338
1401
1419
1332
1464
1320
1419
1401
1338
1476
1326
1431
1380
1347
1458
1320
1449
1368
1368
1446
1320
1461
1350
1392
1434
1326
1467
1332
1407
1410
1335
1473
1323
1425
1398
1344
1470
1320
1434
1377
1356
1455
1320
1458
1362
1371
1440
1314
1467
1353
1389
1431
1326
1464
1332
1410
1410
1335
1473
1323
1425
1389
1344
1461
1326
1437
1371
1356
1461
1323
1461
1359
1368
1443
1320
1467
1347
1395
1425
1335
1473
1332
1413
1410
1335
1467
1326
1428
1392
1341
1461
1182
1608
1251
1419
1473
1209
1608
1230
1488
1422
1233
1599
1209
1536
1377
1278
1569
1197
1560
1317
1323
1545
1188
1599
1272
1377
1488
1197
1602
1239
1449
1443
1212
1605
1209
1509
1407
1260
1587
1203
1551
1350
1302
1563
1191
1587
1302
1356
1521
1188
1593
1257
1407
1470
1218
1605
1218
1473
1437
1236
1602
1203
1527
1383
1275
1572
1203
1566
1323
1329
1560
1197
1596
1278
1374
1494
1191
1608
1251
1434
1434
1206
1608
1221
1494
1413
1254
1599
1209
1536
1365
1299
1557
1197
1569
1302
1341
1530
1191
1593
1263
1395
1479
1206
1602
1236
1467
1431
1224
1596
1209
1518
1383
1275
1572
1197
1557
1335
1314
1545
1200
1581
1284
1368
1506
1191
1596
1257
1422
1455
1221
1608
1233
1479
1416
1254
1593
1212
1527
1365
1296
1569
1203
1569
1317
1338
1530
1188
1593
1272
1386
1488
1206
1605
1239
1449
1437
1227
1596
1215
1509
1398
1269
1581
1206
1542
1350
1317
1551
1200
1572
1302
1359
1506
1194
1590
1266
1407
1458
1215
1599
1239
1470
1422
1242
1590
1221
1527
1383
1293
1569
1203
1560
1323
1329
1536
1197
1581
1272
1377
1488
1197
1596
1248
1446
1449
1230
1593
1224
1500
1410
1260
1575
1209
1545
1356
1320
1548
1212
1560
1308
1347
1518
1185
1587
1266
1404
1479
1221
1602
1239
1470
1422
1242
1593
1218
1521
1383
1281
1572
1206
1551
1332
1326
1542
1200
1575
1287
1374
1488
1203
1587
1254
1422
1449
1221
1596
1224
1491
1404
1257
1584
1221
1533
1359
1317
1557
1209
1557
1317
1347
1515
1206
1584
1263
1386
1479
1218
1590
1245
1458
1428
1227
1590
1227
1506
1392
1278
1566
1215
1545
1338
1317
1542
1206
1572
1281
1362
1500
1200
1590
1260
1419
1449
1251
1590
1236
1482
1413
1254
1575
1212
1521
1368
1305
1560
1209
1554
1317
1347
1524
1206
1587
1272
1386
1473
1215
1584
1251
1446
1437
1236
1584
1230
1509
1389
1275
1566
1218
1539
1344
1320
1539
1215
1563
1305
1368
1494
1215
1587
1269
1413
1461
1224
1578
1245
1467
1422
1248
1569
1224
1515
1380
1290
1548
1212
1560
1326
1341
1524
1218
1572
1272
1380
1479
1212
1590
1263
1437
1437
1233
1581
1230
1497
1404
1269
1581
1215
1524
1362
1308
1545
1209
1566
1314
1344
1518
1200
1584
1272
1398
1473
1212
1593
1239
1458
1431
1227
1587
1215
1506
1392
1272
1575
1209
1545
1338
1314
1545
1206
1584
1290
1359
1500
1200
1590
1260
1419
1455
1221
1596
1233
1488
1410
1251
1590
1215
1524
1374
1293
1560
1209
1557
1317
1338
1524
1197
1590
1278
1386
1470
1209
1593
1245
1449
1443
1233
1593
1221
1503
1398
1272
1569
1212
1539
1350
1311
1548
1203
1572
1299
1353
1506
1206
1590
1263
1413
1458
1221
1599
1239
1473
1422
1239
1584
1218
1518
1374
1296
1560
1212
1551
1323
1332
1527
1206
1581
1281
1374
1485
1212
1590
1248
1449
1437
1227
1587
1227
1500
1401
1275
1572
1209
1536
1356
1311
1548
1212
1566
1308
1353
1506
1203
1581
1269
1410
1455
1227
1587
1245
1467
1422
1242
1587
1230
1512
1383
1293
1557
1218
1566
1329
1326
1539
1212
1575
1284
1371
1488
1212
1593
1254
1431
1446
1227
1584
1233
1497
1407
1257
1575
1221
1533
1362
1305
1551
1209
1557
1314
1344
1512
1212
1581
1269
1392
1467
1215
1584
1251
1458
1428
1239
1584
1221
1512
1392
1281
1569
1215
1542
1344
1326
1545
1212
1572
1293
1365
1494
1209
1584
1266
1422
1449
1227
1590
1239
1479
1410
1263
1575
1224
1527
1371
1308
1551
1215
1551
1314
1341
1524
1212
1584
1275
1386
1479
1221
1587
1257
1449
1434
1233
1587
1236
1497
1398
1281
1563
1215
1542
1347
1323
1539
1215
1563
1299
1356
1497
1206
1584
1272
1416
1455
1227
1584
1239
1476
1413
1251
1581
1221
1518
1374
1296
1545
1224
1548
1326
1332
1527
1212
1575
1281
1380
1479
1215
1584
1257
1434
1440
1233
1584
1230
1494
1401
1278
1572
1218
1533
1356
1311
1542
1215
1560
1314
1359
1506
1209
1581
1272
1401
1470
1230
1587
1248
1458
1422
1245
1581
1227
1512
1383
1287
1557
1218
1548
1329
1329
1524
1212
1575
1287
1377
1488
1212
1584
1260
1425
1446
1233
1584
1242
1488
1404
1263
1578
1224
1524
1362
1308
1548
1218
1557
1314
1356
1509
1206
1572
1278
1392
1467
1221
1584
1260
1458
1428
1248
1578
1230
1512
1383
1281
1563
1224
1539
1335
1326
1533
1218
1575
1293
1362
1491
1209
1581
1269
1422
1452
1236
1587
1242
1473
1413
1263
1572
1227
1518
1371
1308
1545
1218
1551
1323
1347
1518
1221
1578
1284
1389
1470
1221
1581
1257
1446
1431
1233
1581
1245
1503
1386
1278
1560
1230
1539
1350
1320
1536
1215
1566
1299
1365
1497
1212
1581
1269
1407
1458
1230
1584
1260
1476
1416
1254
1569
1233
1512
1380
1299
1554
1224
1548
1332
1344
1524
1221
1569
1284
1383
1470
1218
1581
1257
1437
1434
1233
1581
1242
1485
1404
1272
1569
1224
1530
1359
1317
1533
1221
1557
1311
1356
1506
1215
1578
1275
1398
1458
1227
1581
1239
1467
1425
1248
1572
1236
1515
1383
1293
1554
1224
1542
1326
1335
1524
1218
1566
1293
1374
1476
1218
1578
1263
1425
1446
1239
1572
1239
1485
1407
1275
1569
1227
1521
1359
1317
1536
1215
1551
1314
1347
1509
1221
1575
1281
1398
1458
1230
1578
1254
1455
1422
1251
1569
1236
1506
1386
1296
1551
1218
1536
1341
1329
1533
1215
1560
1302
1374
1485
1218
1581
1275
1419
1449
1236
1578
1248
1479
1413
1269
1569
1230
1524
1371
1311
1533
1221
1545
1320
1341
1515
1215
1572
1284
1392
1464
1230
1572
1257
1449
1425
1248
1572
1233
1497
1395
1293
1554
1233
1536
1347
1326
1530
1224
1563
1299
1368
1482
1215
1569
1275
1410
1455
1239
1578
1260
1473
1410
1263
1560
1233
1512
1371
1305
1539
1230
1545
1326
1344
1512
1221
1569
1293
1383
1473
1224
1575
1263
1437
1431
1242
1572
1242
1497
1404
1284
1557
1221
1527
1347
1326
1533
1221
1548
1305
1362
1491
1221
1569
1284
1410
1455
1233
1578
1251
1464
1416
1260
1569
1233
1506
1377
1305
1539
1233
1545
1329
1341
1515
1221
1569
1290
1383
1476
1221
1569
1266
1437
1434
1239
1572
1248
1494
1398
1278
1557
1233
1521
1362
1320
1539
1224
1551
1311
1359
1497
1221
1566
1284
1410
1458
1236
1578
1257
1461
1416
1263
1566
1230
1503
1380
1302
1542
1233
1536
1335
1335
1515
1221
1563
1290
1368
1473
1224
1569
1269
1431
1434
1239
1569
1248
1485
1404
1272
1557
1236
1518
1356
1317
1527
1230
1542
1317
1359
1500
1227
1566
1281
1401
1455
1239
1572
1263
1461
1413
1260
1569
1236
1491
1383
1299
1542
1236
1530
1338
1332
1518
1221
1557
1302
1383
1479
1233
1569
1272
1431
1449
1242
1572
1251
1476
1407
1269
1569
1227
1521
1362
1311
1536
1227
1542
1320
1350
1509
1224
1569
1281
1395
1455
1236
1572
1266
1455
1425
1251
1569
1239
1497
1392
1293
1545
1230
1530
1338
1332
1521
1224
1560
1299
1371
1482
1227
1572
1272
1419
1446
1236
1581
1251
1470
1410
1269
1563
1242
1512
1371
1311
1536
1227
1539
1323
1350
1506
1221
1566
1284
1395
1467
1230
1566
1263
1449
1431
1248
1566
1245
1500
1392
1290
1548
1233
1527
1350
1332
1530
1224
1557
1305
1365
1485
1221
1569
1275
1410
1446
1245
1569
1248
1473
1410
1263
1563
1233
1509
1371
1305
1533
1227
1539
1323
1344
1515
1227
1569
1287
1392
1470
1227
1572
1266
1449
1431
1248
1569
1239
1494
1401
1284
1554
1227
1527
1350
1320
1530
1224
1545
1308
1359
1491
1224
1572
1281
1410
1455
1239
1572
1254
1467
1416
1260
1563
1242
1512
1377
1302
1542
1236
1542
1329
1341
1512
1221
1566
1296
1392
1476
1230
1572
1266
1443
1428
1248
1569
1245
1485
1401
1284
1560
1233
1518
1362
1326
1524
1227
1545
1308
1359
1491
1221
1563
1281
1407
1455
1245
1569
1257
1464
1413
1266
1563
1242
1500
1377
1299
1539
1233
1536
1338
1344
1521
1224
1560
1296
1389
1473
1227
1566
1272
1431
1437
1242
1569
1248
1482
1401
1278
1554
1233
1518
1365
1320
1524
1227
1542
1311
1359
1497
1230
1560
1284
1401
1464
1242
1566
1260
1455
1422
1257
1563
1239
1500
1386
1299
1548
1236
1533
1335
1335
1521
1233
1554
1296
1371
1476
1230
1563
1269
1425
1440
1248
1566
1248
1476
1413
1272
1554
1242
1518
1362
1314
1524
1233
1545
1320
1353
1506
1230
1563
1281
1401
1458
1236
1569
1266
1449
1425
1257
1560
1239
1503
1383
1296
1545
1236
1527
1338
1329
1524
1236
1557
1299
1371
1482
1224
1569
1272
1419
1443
1242
1563
1260
1476
1410
1272
1554
1245
1512
1371
1311
1524
1233
1536
1314
1353
1500
1227
1566
1284
1389
1467
1233
1566
1269
1452
1425
1251
1563
1239
1494
1389
1296
1551
1236
1530
1341
1335
1518
1230
1554
1305
1368
1482
1230
1563
1278
1416
1443
1248
1572
1257
1476
1410
1266
1554
1242
1512
1374
1317
1527
1233
1536
1323
1356
1506
1233
1557
1293
1395
1467
1239
1563
1269
1452
1431
1254
1557
1242
1497
1395
1293
1551
1233
1524
1347
1338
1527
1236
1551
1311
1371
1482
1230
1563
1281
1419
1446
1245
1569
1257
1467
1404
1275
1557
1242
1506
1368
1317
1524
1236
1530
1323
1353
1509
1227
1554
1290
1395
1464
1239
1563
1266
1440
1431
1251
1566
1248
1491
1389
1299
1551
1239
1524
1347
1332
1527
1236
1548
1305
1368
1482
1230
1569
1284
1410
1446
1251
1563
1263
1467
1407
1272
1557
1245
1512
1371
1308
1524
1242
1530
1320
1347
1503
1227
1557
1290
1392
1464
1242
1563
1266
1443
1431
1257
1554
1248
1497
1392
1299
1545
1239
1527
1353
1329
1521
1239
1545
1311
1368
1479
1227
1566
1278
1413
1449
1257
1563
1260
1467
1410
1281
1554
1245
1500
1374
1314
1527
1236
1530
1332
1344
1503
1236
1557
1296
1383
1464
1239
1560
1266
1446
1425
1245
1566
1248
1488
1395
1293
1548
1239
1518
1353
1329
1518
1233
1542
1308
1362
1488
1236
1557
1275
1410
1446
1254
1563
1263
1461
1413
1263
1557
1245
1500
1380
1317
1533
1242
1530
1326
1353
1506
1230
1557
1290
1386
1467
1236
1560
1272
1443
1431
1254
1554
1251
1482
1395
1293
1545
1239
1515
1350
1338
1524
1239
1542
1308
1368
1491
1236
1560
1281
1407
1449
1245
1566
1260
1464
1416
1272
1551
1248
1503
1383
1311
1521
1251
1530
1332
1347
1500
1236
1557
1290
1386
1464
1239
1557
1272
1437
1431
1251
1563
1254
1485
1404
1290
1545
1236
1515
1356
1338
1518
1239
1542
1323
1359
1485
1230
1554
1281
1404
1449
1251
1566
1266
1458
1410
1269
1551
1242
1506
1377
1305
1539
1236
1524
1338
1338
1509
1236
1545
1305
1380
1467
1239
1566
1281
1431
1440
1248
1554
1254
1482
1404
1281
1551
1242
1509
1365
1317
1524
1242
1533
1329
1359
1503
1236
1557
1302
1401
1458
1248
1560
1266
1449
1428
1257
1554
1251
1491
1389
1308
1539
1245
1518
1350
1332
1524
1236
1545
1308
1368
1476
1236
1557
1278
1416
1440
1254
1566
1263
1470
1410
1275
1554
1245
1500
1374
1314
1521
1236
1527
1332
1347
1503
1239
1560
1290
1392
1464
1239
1563
1275
1446
1425
1254
1557
1251
1491
1398
1293
1539
1242
1518
1350
1335
1515
1236
1542
1314
1368
1488
1239
1560
1290
1404
1446
1248
1557
1269
1458
1416
1269
1548
1254
1500
1380
1308
1533
1245
1533
1332
1347
1503
1236
1551
1296
1377
1464
1239
1557
1278
1425
1437
1251
1560
1257
1479
1398
1293
1551
1242
1503
1368
1326
1524
1242
1536
1320
1359
1491
1233
1548
1284
1398
1452
1248
1557
1266
1452
1425
1269
1545
1251
1497
1386
1305
1536
1242
1521
1347
1335
1509
1236
1542
1305
1374
1476
1233
1554
1278
1416
1440
1260
1554
1266
1476
1398
1278
1551
1248
1500
1365
1326
1515
1248
1536
1326
1356
1491
1251
1548
1293
1398
1452
1248
1557
1269
1452
1419
1269
1548
1254
1488
1395
1305
1533
1242
1521
1353
1344
1509
1248
1539
1311
1371
1473
1239
1554
1290
1419
1443
1266
1551
1263
1464
1404
1284
1542
1245
1506
1371
1317
1518
1248
1524
1326
1353
1497
1245
1545
1299
1392
1452
1251
1554
1281
1437
1425
1263
1554
1260
1488
1395
1296
1539
1251
1515
1356
1338
1506
1242
1536
1314
1365
1482
1248
1548
1287
1401
1446
1260
1551
1272
1461
1410
1272
1551
1251
1497
1374
1323
1524
1245
1524
1335
1347
1500
1245
1545
1302
1386
1467
1245
1551
1278
1431
1428
1260
1551
1263
1476
1392
1293
1542
1248
1506
1365
1323
1512
1251
1527
1320
1359
1488
1248
1545
1293
1398
1446
1254
1545
1269
1446
1419
1272
1545
1257
1491
1389
1308
1530
1248
1512
1350
1344
1512
1245
1539
1305
1380
1467
1248
1548
1281
1422
1437
1263
1551
1266
1467
1398
1290
1539
1251
1494
1374
1323
1512
1251
1530
1326
1359
1491
1251
1548
1299
1395
1461
1251
1551
1278
1440
1428
1266
1542
1263
1488
1386
1305
1533
1254
1509
1353
1344
1503
1248
1530
1320
1371
1479
1242
1545
1287
1413
1434
1260
1548
1269
1458
1413
1284
1536
1260
1503
1374
1323
1518
1248
1527
1332
1356
1494
1251
1548
1302
1389
1461
1248
1548
1275
1440
1425
1272
1545
1266
1482
1389
1302
1533
1251
1506
1356
1341
1509
1248
1527
1317
1365
1476
1254
1545
1290
1407
1449
1263
1545
1275
1458
1407
1281
1542
1257
1494
1377
1317
1521
1257
1518
1338
1350
1503
1254
1539
1299
1386
1458
1257
1554
1278
1431
1434
1266
1545
1263
1473
1395
1296
1536
1254
1500
1359
1335
1503
1251
1524
1323
1371
1485
1248
1545
1293
1398
1443
1263
1551
1269
1449
1419
1281
1548
1260
1488
1386
1311
1521
1251
1512
1344
1344
1500
1248
1539
1308
1392
1458
1251
1548
1290
1422
1431
1266
1548
1269
1467
1407
1290
1536
1254
1506
1374
1335
1506
1257
1524
1317
1365
1491
1245
1542
1296
1395
1452
1257
1545
1275
1443
1413
1275
1548
1257
1482
1386
1308
1527
1248
1518
1350
1344
1506
1251
1524
1308
1371
1464
1257
1536
1293
1410
1431
1269
1542
1272
1464
1404
1287
1536
1257
1497
1368
1326
1509
1257
1515
1323
1365
1491
1245
1539
1299
1389
1452
1263
1542
1284
1443
1410
1272
1539
1260
1482
1392
1308
1530
1251
1512
1347
1335
1497
1260
1521
1314
1377
1485
1239
1545
1287
1413
1434
1269
1545
1278
1467
1401
1284
1539
1254
1488
1380
1323
1512
1254
1518
1326
1359
1491
1251
1539
1305
1395
1446
1260
1542
1278
1437
1425
1269
1545
1263
1476
1386
1308
1530
1254
1503
1356
1338
1503
1251
1527
1320
1374
1473
1251
1539
1293
1416
1443
1269
1542
1275
1464
1407
1287
1533
1260
1497
1377
1323
1521
1254
1512
1335
1359
1494
1254
1536
1305
1386
1452
1254
1548
1281
1428
1419
1269
1539
1269
1467
1398
1299
1527
1254
1500
1353
1344
1497
1257
1530
1320
1371
1476
1257
1539
1296
1413
1440
1263
1542
1281
1458
1407
1284
1533
1266
1491
1380
1320
1521
1257
1521
1341
1350
1494
1254
1536
1308
1386
1458
1254
1548
1284
1431
1422
1278
1542
1269
1476
1392
1305
1527
1254
1506
1356
1341
1503
1248
1524
1323
1371
1482
1257
1545
1299
1404
1440
1263
1542
1278
1455
1416
1281
1533
1263
1488
1380
1317
1521
1251
1509
1338
1347
1491
1260
1524
1305
1389
1455
1254
1542
1284
1425
1419
1269
1542
1272
1470
1395
1299
1530
1260
1503
1365
1338
1503
1251
1527
1320
1374
1479
1254
1539
1296
1407
1431
1269
1536
1275
1446
1413
1272
1530
1254
1485
1380
1323
1518
1257
1515
1344
1350
1494
1251
1533
1305
1383
1455
1254
1539
1296
1422
1428
1269
1545
1272
1473
1401
1302
1527
1257
1506
1362
1335
1506
1251
1521
1323
1371
1482
1254
1536
1293
1404
1437
1266
1542
1278
1452
1410
1281
1533
1260
1494
1380
1323
1527
1251
1506
1338
1353
1491
1254
1533
1305
1386
1455
1263
1539
1287
1428
1425
1281
1536
1272
1479
1398
1302
1530
1260
1500
1356
1341
1503
1254
1521
1317
1371
1479
1254
1539
1293
1401
1443
1269
1536
1278
1452
1407
1281
1536
1260
1485
1383
1329
1512
1257
1509
1341
1362
1497
1260
1530
1290
1389
1464
1257
1542
1290
1428
1425
1275
1536
1272
1473
1398
1299
1524
1260
1497
1359
1338
1497
1266
1518
1326
1368
1479
1263
1536
1293
1410
1440
1269
1539
1278
1455
1410
1284
1530
1260
1491
1377
1326
1512
1257
1515
1341
1356
1497
1254
1539
1302
1389
1449
1260
1542
1287
1434
1416
1275
1542
1275
1470
1398
1305
1524
1257
1500
1359
1347
1497
1260
1521
1323
1368
1476
1254
1542
1296
1413
1440
1269
1536
1278
1452
1410
1290
1533
1263
1491
1374
1329
1509
1257
1512
1341
1353
1488
1263
1530
1311
1392
1446
1254
1539
1284
1434
1422
1284
1530
1266
1473
1386
1311
1521
1263
1500
1350
1347
1494
1260
1518
1317
1374
1464
1263
1533
1296
1413
1431
1272
1533
1275
1458
1404
1293
1527
1263
1494
1374
1329
1506
1260
1512
1332
1362
1485
1257
1530
1299
1392
1452
1263
1545
1287
1443
1419
1275
1533
1275
1476
1380
1311
1524
1260
1503
1350
1350
1494
1263
1521
1317
1383
1467
1260
1536
1290
1416
1434
1275
1539
1284
1464
1398
1296
1530
1269
1503
1365
1332
1509
1266
1512
1332
1362
1485
1257
1530
1302
1404
1443
1275
1530
1281
1458
1407
1281
1536
1269
1479
1383
1314
1521
1263
1503
1350
1350
1494
1260
1527
1314
1386
1464
1266
1533
1299
1422
1425
1275
1536
1281
1461
1395
1302
1521
1263
1491
1362
1335
1503
1263
1518
1332
1371
1479
1257
1533
1302
1401
1437
1275
1533
1284
1452
1410
1287
1527
1272
1485
1383
1323
1509
1263
1509
1341
1353
1491
1263
1524
1314
1383
1452
1257
1533
1287
1431
1419
1281
1536
1272
1467
1392
1305
1518
1269
1497
1356
1347
1488
1269
1515
1317
1374
1467
1263
1527
1302
1413
1434
1275
1530
1275
1455
1407
1293
1524
1266
1494
1377
1329
1509
1260
1509
1335
1356
1485
1257
1524
1311
1389
1449
1260
1536
1284
1431
1416
1284
1533
1278
1473
1392
1305
1521
1272
1497
1365
1344
1500
1263
1512
1332
1374
1467
1266
1533
1305
1407
1437
1266
1536
1284
1446
1413
1287
1530
1272
1476
1383
1317
1515
1263
1503
1347
1350
1488
1266
1515
1323
1383
1458
1266
1527
1296
1419
1431
1272
1527
1281
1458
1395
1290
1530
1269
1485
1377
1332
1506
1263
1506
1335
1362
1482
1263
1524
1308
1392
1452
1272
1536
1290
1431
1416
1284
1527
1281
1473
1395
1308
1515
1272
1500
1365
1344
1491
1263
1518
1329
1368
1464
1263
1530
1299
1401
1437
1272
1530
1284
1449
1404
1287
1524
1272
1485
1383
1323
1515
1269
1506
1341
1350
1494
1272
1521
1311
1392
1452
1263
1527
1296
1428
1425
1281
1536
1284
1458
1398
1302
1521
1266
1497
1374
1335
1500
1263
1509
1335
1362
1482
1263
1521
1299
1392
1440
1266
1530
1290
1431
1419
1284
1524
1278
1473
1392
1317
1512
1269
1500
1353
1350
1491
1266
1515
1323
1374
1467
1269
1527
1299
1413
1431
1275
1530
1281
1449
1410
1299
1521
1272
1482
1374
1326
1506
1266
1500
1341
1359
1482
1263
1524
1308
1389
1455
1260
1533
1296
1425
1422
1284
1530
1284
1467
1398
1308
1518
1266
1494
1368
1344
1497
1266
1509
1332
1365
1470
1263
1527
1302
1398
1443
1272
1530
1284
1443
1410
1284
1518
1272
1479
1380
1320
1509
1266
1500
1350
1353
1488
1266
1512
1320
1374
1464
1269
1527
1296
1410
1431
1278
1536
1281
1455
1389
1302
1521
1266
1491
1374
1332
1503
1263
1512
1338
1356
1479
1272
1521
1305
1389
1455
1263
1530
1293
1428
1422
1293
1530
1281
1473
1389
1311
1521
1266
1494
1362
1347
1497
1272
1515
1326
1374
1467
1266
1524
1302
1404
1434
1278
1527
1281
1449
1404
1296
1521
1275
1482
1380
1323
1512
1275
1503
1347
1353
1491
1269
1515
1323
1386
1452
1269
1524
1293
1416
1419
1287
1527
1284
1461
1395
1308
1512
1266
1488
1371
1338
1500
1272
1509
1329
1362
1473
1266
1527
1302
1392
1443
1272
1527
1287
1434
1413
1287
1521
1278
1473
1389
1320
1506
1269
1494
1350
1353
1488
1269
1512
1320
1374
1464
1269
1524
1305
1413
1428
1281
1515
1287
1458
1401
1302
1518
1269
1485
1374
1338
1503
1263
1509
1335
1365
1479
1266
1518
1314
1392
1452
1272
1533
1293
1425
1419
1284
1521
1287
1464
1389
1308
1512
1272
1497
1359
1341
1491
1272
1515
1326
1368
1467
1269
1524
1305
1404
1437
1275
1524
1293
1443
1410
1293
1521
1272
1479
1386
1329
1506
1275
1500
1344
1353
1488
1275
1515
1317
1383
1458
1269
1524
1290
1419
1422
1293
1521
1287
1464
1398
1302
1512
1269
1488
1368
1338
1494
1272
1503
1329
1368
1479
1269
1521
1308
1395
1440
1272
1533
1287
1434
1419
1287
1518
1281
1476
1380
1317
1512
1272
1497
1353
1350
1488
1263
1512
1326
1377
1461
1272
1521
1290
1416
1428
1290
1527
1287
1449
1401
1299
1512
1275
1491
1374
1332
1497
1266
1500
1341
1365
1476
1269
1518
1317
1395
1443
1272
1530
1290
1425
1416
1287
1524
1284
1467
1392
1320
1515
1269
1488
1365
1350
1488
1275
1509
1332
1371
1470
1275
1524
1302
1404
1431
1278
1524
1287
1443
1404
1299
1515
1281
1482
1377
1326
1503
1272
1503
1347
1359
1485
1272
1515
1314
1386
1449
1269
1527
1293
1425
1419
1290
1521
1281
1458
1392
1308
1512
1272
1497
1365
1347
1491
1272
1503
1329
1371
1473
1275
1527
1305
1398
1431
1275
1524
1293
1440
1410
1296
1512
1278
1470
1389
1323
1509
1275
1494
1356
1356
1482
1269
1509
1323
1386
1458
1272
1527
1299
1416
1422
1284
1521
1287
1455
1395
1302
1509
1272
1485
1371
1335
1497
1278
1506
1335
1368
1476
1269
1512
1314
1395
1440
1281
1521
1293
1428
1413
1293
1515
1281
1473
1386
1326
1515
1272
1494
1356
1350
1482
1272
1506
1329
1380
1464
1275
1521
1302
1413
1428
1287
1524
1287
1443
1407
1299
1512
1272
1479
1377
1338
1497
1272
1500
1341
1368
1479
1275
1515
1311
1389
1446
1278
1521
1296
1425
1422
1296
1521
1290
1461
1389
1311
1512
1272
1488
1368
1350
1485
1272
1506
1326
1371
1473
1275
1521
1308
1401
1434
1284
1524
1287
1440
1404
1290
1512
1281
1479
1380
1326
1506
1272
1497
1344
1359
1476
1278
1509
1320
1389
1449
1281
1521
1299
1422
1422
1287
1521
1284
1452
1392
1308
1515
1275
1485
1365
1341
1497
1275
1506
1332
1368
1473
1278
1524
1308
1395
1437
1284
1530
1293
1440
1407
1296
1512
1284
1479
1383
1323
1506
1272
1494
1353
1362
1482
1284
1512
1329
1380
1452
1275
1521
1305
1410
1425
1296
1518
1284
1452
1392
1302
1512
1275
1485
1371
1332
1491
1281
1503
1341
1365
1476
1275
1515
1308
1398
1437
1275
1521
1296
1434
1413
1293
1515
1281
1473
1383
1317
1506
1275
1488
1362
1347
1485
1272
1509
1326
1377
1455
1275
1515
1305
1416
1428
1284
1524
1293
1446
1395
1299
1515
1275
1479
1380
1341
1497
1275
1497
1338
1362
1473
1278
1512
1311
1395
1449
1281
1518
1296
1425
1416
1299
1515
1287
1464
1395
1311
1503
1278
1488
1362
1350
1479
1272
1512
1329
1377
1461
1278
1515
1302
1407
1428
1278
1524
1296
1446
1404
1299
1512
1284
1479
1380
1329
1500
1278
1500
1344
1359
1476
1281
1512
1317
1386
1446
1284
1518
1302
1425
1413
1296
1512
1293
1461
1392
1308
1512
1278
1485
1362
1344
1485
1263
1503
1329
1368
1470
1281
1518
1299
1407
1440
1284
1515
1293
1443
1404
1293
1518
1281
1473
1380
1329
1500
1281
1491
1353
1362
1476
1272
1506
1317
1383
1452
1278
1515
1296
1413
1419
1296
1515
1284
1455
1395
1305
1512
1278
1485
1365
1344
1485
1275
1497
1338
1371
1470
1272
1518
1311
1398
1434
1281
1518
1293
1440
1407
1296
1515
1284
1470
1386
1329
1503
1281
1494
1350
1353
1476
1275
1509
1329
1380
1452
1278
1518
1302
1413
1422
1290
1518
1287
1452
1398
1308
1512
1275
1488
1371
1338
1491
1278
1500
1332
1371
1473
1278
1515
1308
1395
1446
1287
1518
1293
1434
1410
1302
1515
1284
1467
1383
1326
1509
1278
1485
1362
1353
1479
1278
1503
1329
1380
1452
1275
1515
1302
1404
1431
1287
1515
1290
1449
1398
1302
1512
1278
1482
1374
1341
1491
1275
1500
1341
1365
1473
1284
1512
1314
1395
1440
1281
1521
1293
1431
1410
1302
1515
1284
1461
1392
1320
1512
1278
1488
1362
1350
1482
1281
1503
1332
1377
1470
1275
1524
1311
1407
1434
1287
1515
1299
1449
1398
1299
1509
1281
1476
1368
1335
1494
1278
1497
1347
1365
1473
1281
1509
1317
1392
1446
1281
1515
1293
1431
1419
1296
1509
1290
1461
1395
1314
1509
1278
1479
1365
1353
1485
1278
1500
1326
1380
1461
1275
1515
1305
1407
1428
1290
1521
1293
1443
1401
1296
1512
1281
1470
1389
1335
1497
1275
1494
1347
1359
1479
1284
1512
1320
1383
1446
1281
1518
1296
1419
1410
1296
1515
1287
1455
1392
1311
1506
1275
1485
1365
1341
1488
1281
1497
1332
1377
1461
1281
1512
1308
1398
1434
1293
1512
1299
1437
1407
1305
1509
1281
1482
1383
1332
1494
1275
1494
1353
1362
1473
1278
1503
1320
1386
1446
1275
1509
1308
1413
1419
1296
1512
1293
1458
1386
1314
1506
1281
1482
1362
1341
1485
1281
1500
1341
1377
1464
1278
1518
1305
1398
1434
1281
1512
1299
1440
1410
1296
1518
1284
1473
1380
1332
1503
1275
1488
1356
1356
1473
1278
1500
1323
1383
1458
1275
1515
1299
1410
1419
1293
1521
1290
1464
1398
1314
1506
1278
1482
1374
1341
1488
1278
1497
1335
1368
1473
1284
1512
1308
1398
1434
1287
1515
1296
1431
1407
1296
1515
1287
1467
1380
1326
1494
1281
1494
1350
1359
1479
1284
1506
1326
1383
1449
1287
1515
1305
1413
1419
1296
1518
1293
1449
1401
1308
1503
1281
1479
1377
1344
1488
1278
1500
1341
1371
1464
1287
1509
1305
1401
1431
1287
1518
1299
1428
1407
1296
1506
1293
1467
1380
1329
1503
1278
1482
1359
1356
1470
1284
1506
1323
1386
1455
1281
1512
1302
1410
1422
1293
1512
1290
1449
1398
1317
1503
1281
1482
1368
1341
1488
1284
1500
1338
1371
1467
1278
1512
1311
1395
1434
1293
1512
1296
1437
1416
1302
1509
1290
1467
1380
1332
1500
1281
1494
1359
1359
1470
1281
1500
1329
1383
1449
1287
1521
1299
1407
1422
1296
1509
1293
1446
1395
1308
1509
1275
1476
1374
1341
1494
1281
1497
1338
1365
1464
1278
1509
1311
1395
1428
1287
1512
1299
1431
1404
1302
1515
1293
1464
1380
1326
1497
1278
1491
1353
1362
1476
1284
1506
1326
1383
1455
1281
1515
1302
1413
1416
1296
1503
1290
1455
1398
1311
1500
1290
1479
1368
1344
1491
1284
1500
1335
1371
1464
1284
1509
1314
1398
1437
1284
1521
1299
1434
1407
1308
1509
1293
1464
1383
1326
1497
1284
1494
1356
1359
1470
1275
1503
1323
1380
1449
1287
1518
1308
1416
1428
1299
1506
1293
1449
1398
1314
1503
1284
1482
1374
1347
1488
1284
1500
1335
1371
1461
1287
1512
1314
1395
1431
1290
1512
1296
1440
1413
1302
1509
1290
1464
1380
1332
1494
1287
1491
1353
1356
1476
1284
1503
1326
1383
1452
1290
1512
1299
1410
1419
1296
1509
1290
1455
1395
1323
1497
1284
1479
1371
1347
1485
1284
1497
1335
1371
1467
1287
1512
1311
1395
1434
1293
1509
1302
1434
1407
1299
1506
1290
1467
1386
1332
1503
1284
1491
1350
1362
1473
1281
1503
1323
1383
1446
1281
1512
1311
1416
1422
1302
1509
1290
1458
1389
1314
1494
1281
1482
1365
1347
1482
1284
1494
1335
1374
1461
1281
1512
1311
1401
1434
1293
1515
1296
1431
1404
1311
1506
1293
1464
1380
1329
1494
1287
1494
1353
1356
1470
1278
1506
1326
1392
1446
1290
1509
1305
1422
1419
1311
1506
1293
1455
1389
1317
1497
1290
1479
1362
1347
1485
1284
1503
1341
1371
1467
1284
1512
1311
1398
1431
1287
1506
1302
1443
1398
1308
1509
1287
1467
1380
1338
1494
1287
1491
1350
1362
1473
1284
1506
1323
1392
1443
1287
1506
1305
1416
1416
1302
1512
1293
1449
1395
1317
1497
1284
1479
1362
1350
1482
1290
1494
1329
1374
1464
1287
1506
1311
1404
1425
1290
1515
1296
1440
1398
1302
1503
1290
1473
1374
1335
1488
1287
1488
1350
1368
1470
1281
1503
1317
1389
1443
1290
1512
1299
1425
1407
1305
1500
1293
1455
1386
1329
1503
1284
1485
1362
1362
1476
1290
1500
1329
1383
1455
1290
1509
1311
1407
1422
1290
1509
1293
1446
1395
1311
1506
1287
1467
1380
1338
1488
1290
1494
1344
1368
1467
1284
1500
1320
1392
1440
1290
1515
1305
1425
1410
1308
1506
1296
1461
1386
1323
1497
1290
1482
1356
1359
1476
1287
1503
1335
1377
1455
1293
1509
1314
1407
1425
1296
1506
1293
1446
1395
1311
1500
1287
1473
1374
1341
1482
1290
1497
1344
1374
1467
1287
1506
1311
1398
1434
1293
1515
1305
1428
1407
1311
1500
1299
1458
1386
1329
1494
1287
1488
1356
1362
1473
1284
1500
1326
1386
1446
1293
1506
1311
1413
1422
1302
1503
1296
1452
1395
1311
1503
1290
1482
1371
1347
1482
1281
1497
1338
1374
1464
1281
1506
1320
1404
1434
1296
1506
1305
1431
1401
1308
1500
1299
1467
1377
1332
1485
1284
1485
1356
1362
1470
1290
1497
1323
1383
1446
1293
1506
1314
1413
1419
1302
1506
1299
1455
1389
1314
1494
1284
1482
1365
1356
1479
1284
1494
1338
1374
1455
1290
1506
1320
1407
1425
1296
1509
1299
1434
1404
1308
1506
1293
1473
1380
1335
1488
1287
1500
1350
1362
1461
1284
1497
1323
1392
1437
1290
1512
1305
1419
1416
1302
1503
1296
1461
1383
1326
1491
1290
1482
1362
1353
1470
1290
1497
1332
1383
1461
1290
1506
1308
1404
1428
1299
1506
1299
1443
1404
1311
1494
1287
1470
1383
1344
1485
1287
1485
1344
1365
1464
1287
1497
1323
1392
1437
1290
1506
1302
1428
1404
1305
1506
1296
1461
1389
1326
1494
1287
1479
1365
1356
1476
1290
1503
1335
1383
1452
1290
1506
1314
1407
1425
1296
1503
1299
1446
1389
1320
1497
1290
1473
1371
1350
1479
1287
1494
1341
1368
1458
1287
1497
1320
1398
1431
1299
1506
1302
1431
1401
1308
1506
1296
1461
1386
1335
1488
1287
1485
1353
1365
1467
1290
1497
1326
1386
1449
1293
1506
1305
1419
1413
1308
1503
1302
1458
1389
1317
1497
1290
1482
1368
1350
1479
1290
1494
1335
1380
1458
1287
1500
1320
1404
1422
1296
1509
1299
1434
1401
1311
1503
1293
1473
1374
1338
1485
1287
1491
1353
1365
1464
1284
1497
1326
1395
1440
1293
1503
1302
1419
1416
1314
1500
1299
1455
1389
1323
1500
1290
1473
1368
1356
1470
1284
1491
1338
1383
1452
1290
1503
1311
1404
1422
1296
1503
1299
1443
1401
1317
1494
1293
1470
1377
1344
1482
1287
1491
1350
1371
1458
1287
1491
1323
1395
1431
1293
1503
1305
1419
1413
1308
1506
1299
1458
1386
1332
1494
1287
1482
1359
1359
1476
1296
1491
1326
1380
1449
1293
1503
1308
1410
1422
1308
1503
1299
1446
1389
1314
1500
1293
1479
1371
1347
1479
1296
1488
1341
1374
1458
1293
1500
1317
1395
1434
1296
1509
1302
1434
1407
1311
1497
1302
1461
1380
1326
1491
1290
1479
1356
1365
1464
1293
1494
1329
1389
1443
1296
1503
1311
1416
1416
1305
1500
1302
1446
1386
1323
1488
1290
1479
1368
1353
1482
1287
1494
1338
1377
1455
1293
1503
1311
1407
1422
1299
1506
1305
1434
1404
1311
1494
1296
1464
1374
1338
1488
1293
1485
1350
1365
1467
1293
1491
1311
1392
1437
1296
1503
1308
1416
1413
1314
1506
1296
1452
1386
1323
1488
1287
1476
1368
1356
1476
1290
1491
1335
1386
1449
1299
1500
1314
1407
1419
1299
1497
1305
1446
1395
1311
1500
1296
1470
1371
1344
1476
1290
1482
1350
1377
1458
1296
1494
1323
1395
1437
1302
1503
1311
1422
1407
1311
1497
1296
1452
1383
1335
1488
1287
1476
1362
1365
1470
1293
1491
1335
1389
1443
1296
1500
1311
1410
1419
1302
1503
1305
1443
1395
1323
1494
1287
1473
1371
1344
1476
1290
1491
1344
1377
1455
1296
1497
1320
1401
1431
1302
1506
1305
1425
1407
1320
1494
1299
1458
1380
1335
1482
1296
1479
1362
1365
1467
1293
1494
1326
1389
1443
1299
1506
1308
1416
1413
1305
1503
1302
1458
1395
1323
1491
1296
1479
1365
1353
1476
1290
1488
1341
1386
1452
1296
1494
1320
1401
1431
1293
1503
1308
1437
1395
1311
1497
1299
1461
1377
1344
1485
1290
1482
1350
1365
1461
1293
1491
1332
1392
1437
1299
1497
1311
1416
1410
1314
1497
1296
1452
1389
1326
1485
1290
1476
1368
1362
1473
1296
1494
1341
1380
1452
1296
1497
1317
1404
1425
1302
1500
1308
1434
1392
1317
1497
1302
1467
1374
1341
1476
1290
1482
1347
1371
1458
1296
1494
1323
1392
1434
1293
1503
1305
1422
1404
1317
1500
1299
1455
1383
1329
1488
1290
1479
1359
1356
1473
1293
1497
1335
1389
1446
1293
1497
1311
1413
1416
1302
1506
1302
1443
1392
1314
1497
1293
1467
1368
1350
1479
1290
1491
1344
1377
1455
1296
1494
1326
1398
1428
1302
1500
1305
1431
1404
1311
1491
1299
1461
1374
1332
1485
1290
1479
1359
1368
1461
1296
1491
1335
1386
1446
1296
1506
1308
1419
1413
1311
1503
1296
1443
1392
1326
1491
1299
1473
1371
1356
1476
1290
1485
1344
1377
1452
1293
1497
1320
1401
1428
1299
1497
1305
1434
1401
1317
1491
1302
1461
1374
1332
1488
1296
1485
1353
1365
1464
1296
1494
1329
1392
1443
1296
1494
1308
1419
1407
1302
1500
1299
1446
1386
1323
1482
1293
1479
1368
1356
1467
1293
1488
1338
1383
1461
1302
1500
1320
1401
1428
1302
1497
1305
1434
1398
1317
1497
1296
1461
1374
1338
1482
1296
1485
1350
1365
1455
1293
1491
1329
1392
1431
1299
1500
1308
1422
1407
1308
1497
1302
1452
1386
1326
1485
1293
1482
1362
1362
1470
1293
1491
1338
1383
1452
1296
1497
1314
1404
1419
1299
1500
1305
1440
1395
1317
1494
1302
1464
1371
1341
1473
1302
1482
1353
1374
1458
1299
1491
1326
1395
1431
1299
1503
1305
1422
1407
1317
1497
1308
1455
1392
1332
1488
1296
1473
1359
1359
1467
1296
1494
1335
1392
1452
1296
1500
1311
1413
1416
1308
1497
1302
1440
1392
1326
1494
1296
1470
1371
1347
1482
1293
1479
1350
1377
1452
1302
1491
1326
1395
1434
1305
1494
1305
1425
1407
1320
1494
1296
1455
1380
1338
1482
1296
1479
1362
1362
1467
1296
1491
1329
1386
1449
1296
1503
1308
1413
1410
1314
1500
1302
1443
1395
1326
1485
1302
1470
1368
1353
1473
1296
1485
1350
1377
1452
1299
1488
1323
1398
1425
1302
1503
1302
1425
1401
1317
1497
1302
1461
1374
1335
1479
1296
1476
1353
1368
1464
1296
1494
1335
1395
1443
1296
1497
1311
1413
1413
1305
1497
1302
1446
1389
1323
1491
1296
1470
1368
1356
1470
1290
1482
1347
1380
1452
1299
1497
1317
1410
1425
1299
1503
1311
1431
1401
1320
1491
1308
1452
1374
1344
1488
1296
1473
1356
1371
1452
1299
1488
1335
1395
1443
1299
1488
1314
1422
1410
1311
1494
1299
1452
1389
1329
1485
1293
1476
1368
1359
1470
1296
1485
1341
1380
1449
1299
1491
1320
1404
1419
1308
1503
1308
1440
1401
1320
1488
1305
1455
1380
1341
1479
1299
1479
1350
1377
1461
1296
1488
1326
1389
1437
1302
1497
1308
1413
1410
1320
1494
1305
1452
1386
1329
1485
1296
1473
1362
1356
1467
1296
1491
1335
1383
1452
1302
1494
1320
1413
1416
1311
1494
1311
1437
1398
1320
1494
1299
1467
1371
1347
1479
1296
1479
1353
1377
1455
1299
1488
1329
1398
1431
1302
1500
1314
1419
1410
1314
1494
1299
1455
1389
1329
1482
1290
1473
1359
1365
1464
1299
1485
1335
1383
1443
1296
1506
1320
1410
1413
1311
1497
1305
1440
1395
1323
1494
1305
1467
1371
1347
1479
1299
1482
1344
1374
1452
1299
1485
1329
1395
1434
1308
1494
1305
1422
1410
1320
1488
1308
1461
1380
1329
1482
1302
1479
1359
1362
1458
1299
1494
1338
1392
1443
1308
1497
1317
1413
1416
1314
1491
1299
1446
1386
1323
1482
1305
1470
1374
1359
1470
1302
1485
1347
1374
1452
1308
1494
1320
1395
1425
1308
1491
1305
1431
1398
1320
1488
1308
1455
1377
1338
1479
1302
1479
1356
1368
1455
1299
1485
1332
1386
1446
1311
1491
1317
1413
1413
1314
1494
1308
1449
1392
1326
1482
1299
1476
1368
1356
1470
1293
1485
1344
1380
1449
1302
1491
1323
1401
1425
1305
1491
1314
1431
1398
1326
1494
1305
1458
1380
1338
1479
1302
1482
1356
1365
1458
1302
1488
1326
1395
1443
1302
1497
1311
1416
1410
1314
1500
1305
1440
1386
1326
1488
1296
1470
1365
1353
1470
1299
1482
1335
1380
1455
1305
1497
1320
1401
1419
1308
1491
1311
1431
1398
1323
1491
1302
1461
1374
1341
1482
1296
1476
1353
1377
1455
1305
1488
1326
1392
1437
1308
1500
1311
1413
1407
1314
1497
1305
1449
1383
1335
1488
1296
1470
1365
1365
1470
1302
1488
1338
1383
1452
1302
1500
1317
1404
1422
1314
1497
1308
1431
1398
1323
1482
1308
1461
1374
1344
1473
1299
1479
1350
1374
1452
1299
1491
1323
1395
1437
1308
1497
1308
1419
1404
1317
1488
1308
1455
1383
1332
1479
1299
1473
1359
1365
1464
1299
1488
1338
1383
1446
1308
1497
1320
1413
1416
1308
1491
1305
1437
1395
1326
1491
1302
1461
1377
1353
1476
1302
1485
1350
1377
1452
1302
1488
1323
1398
1431
1305
1494
1314
1425
1404
1320
1488
1305
1458
1383
1335
1479
1302
1479
1362
1365
1458
1305
1488
1335
1383
1449
1305
1494
1314
1407
1410
1311
1497
1308
1446
1392
1326
1485
1302
1464
1371
1353
1473
1302
1482
1347
1377
1449
1299
1491
1326
1398
1425
1305
1494
1308
1425
1407
1326
1488
1305
1452
1380
1332
1479
1302
1473
1356
1368
1464
1296
1485
1338
1389
1443
1299
1497
1314
1410
1410
1317
1485
1305
1440
1395
1329
1488
1299
1473
1368
1353
1473
1296
1482
1347
1380
1452
1305
1494
1323
1398
1425
1311
1491
1311
1425
1404
1329
1485
1302
1452
1380
1335
1479
1302
1482
1356
1365
1458
1302
1482
1338
1386
1446
1305
1500
1311
1419
1410
1317
1494
1308
1443
1389
1332
1482
1302
1467
1368
1353
1470
1299
1482
1347
1380
1449
1302
1494
1323
1401
1428
1308
1491
1308
1431
1395
1326
1488
1305
1455
1380
1347
1479
1293
1479
1356
1371
1458
1311
1485
1329
1392
1431
1308
1494
1314
1410
1413
1317
1494
1308
1446
1389
1332
1479
1302
1467
1368
1359
1464
1299
1479
1344
1383
1446
1305
1488
1320
1401
1419
1308
1494
1311
1425
1398
1329
1485
1302
1455
1374
1338
1470
1299
1476
1353
1374
1455
1305
1491
1329
1392
1434
1305
1497
1311
1413
1407
1314
1494
1314
1449
1383
1329
1485
1305
1473
1365
1362
1455
1299
1485
1341
1386
1440
1302
1488
1320
1410
1416
1311
1488
1317
1437
1392
1326
1482
1308
1461
1377
1344
1473
1302
1482
1356
1371
1446
1302
1488
1332
1401
1431
1314
1500
1314
1419
1413
1317
1491
1308
1446
1386
1332
1482
1305
1479
1362
1365
1464
1302
1485
1335
1383
1446
1305
1488
1320
1404
1416
1308
1488
1308
1431
1395
1326
1485
1311
1464
1371
1347
1470
1305
1482
1353
1374
1461
1308
1491
1326
1392
1428
1311
1491
1314
1425
1404
1317
1494
1308
1449
1380
1332
1476
1296
1476
1365
1365
1458
1302
1476
1341
1389
1437
1308
1488
1323
1407
1419
1314
1491
1305
1431
1392
1323
1485
1305
1461
1368
1353
1470
1299
1473
1350
1377
1449
1308
1488
1323
1398
1431
1302
1491
1314
1425
1401
1323
1485
1305
1452
1383
1338
1482
1302
1470
1368
1368
1464
1305
1488
1335
1392
1446
1305
1494
1317
1407
1413
1311
1497
1311
1434
1389
1329
1482
1299
1467
1377
1347
1464
1305
1473
1350
1377
1449
1305
1482
1323
1404
1428
1314
1491
1317
1422
1401
1326
1488
1305
1449
1383
1338
1479
1299
1476
1362
1368
1458
1302
1482
1332
1386
1437
1314
1491
1314
1410
1410
1314
1488
1311
1440
1389
1329
1491
1305
1467
1368
1353
1467
1308
1479
1344
1377
1443
1308
1485
1329
1395
1419
1317
1491
1314
1428
1401
1326
1491
1308
1452
1377
1338
1479
1299
1473
1362
1368
1458
1305
1485
1335
1392
1437
1302
1491
1317
1410
1416
1311
1494
1308
1431
1395
1329
1479
1305
1464
1365
1359
1470
1302
1479
1347
1383
1449
1308
1482
1326
1407
1425
1314
1488
1320
1425
1395
1323
1485
1308
1458
1377
1341
1476
1302
1479
1359
1368
1452
1305
1482
1335
1392
1440
1311
1485
1314
1410
1410
1314
1485
1314
1443
1392
1329
1482
1305
1467
1365
1362
1467
1302
1479
1341
1383
1443
1305
1491
1323
1398
1425
1308
1488
1311
1425
1395
1326
1488
1311
1452
1374
1344
1470
1305
1479
1359
1368
1449
1302
1479
1335
1392
1434
1311
1494
1320
1416
1410
1314
1494
1311
1437
1389
1332
1479
1302
1464
1368
1359
1467
1308
1482
1344
1380
1446
1308
1482
1323
1404
1422
1314
1488
1311
1431
1401
1326
1482
1305
1452
1377
1344
1479
1305
1473
1359
1374
1452
1308
1482
1332
1395
1440
1311
1494
1320
1419
1407
1314
1488
1302
1443
1383
1335
1476
1302
1467
1368
1359
1461
1305
1476
1344
1380
1440
1305
1479
1326
1404
1422
1308
1491
1311
1422
1398
1329
1485
1305
1458
1383
1344
1470
1299
1476
1356
1374
1452
1308
1479
1335
1389
1437
1311
1494
1314
1422
1407
1314
1485
1314
1446
1389
1332
1476
1302
1476
1371
1359
1461
1302
1476
1347
1383
1440
1308
1479
1329
1407
1416
1311
1488
1311
1431
1401
1332
1482
1305
1452
1377
1344
1467
1299
1479
1356
1371
1452
1305
1482
1335
1398
1431
1305
1488
1317
1413
1407
1323
1485
1311
1443
1380
1332
1479
1302
1467
1362
1356
1464
1305
1479
1341
1386
1440
1308
1485
1323
1407
1419
1314
1488
1311
1428
1401
1332
1479
1311
1455
1371
1344
1467
1299
1479
1356
1374
1452
1305
1485
1335
1392
1431
1314
1485
1317
1413
1410
1317
1488
1305
1440
1383
1338
1473
1308
1473
1362
1359
1461
1302
1476
1338
1383
1446
1314
1491
1323
1404
1425
1317
1482
1311
1431
1398
1335
1485
1308
1458
1371
1344
1470
1302
1479
1353
1377
1455
1314
1485
1332
1395
1434
1305
1494
1320
1416
1410
1323
1485
1308
1443
1383
1332
1473
1314
1467
1368
1362
1461
1302
1476
1350
1389
1437
1308
1479
1323
1407
1416
1317
1485
1311
1434
1392
1332
1479
1305
1464
1380
1350
1470
1302
1473
1359
1374
1452
1308
1479
1332
1392
1431
1311
1488
1323
1416
1410
1326
1488
1308
1449
1386
1335
1473
1308
1473
1362
1359
1464
1308
1482
1347
1392
1446
1311
1482
1320
1401
1425
1317
1488
1320
1434
1395
1329
1479
1314
1464
1377
1350
1470
1302
1470
1362
1377
1455
1308
1479
1329
1392
1431
1311
1491
1317
1416
1407
1320
1482
1308
1440
1386
1335
1476
1305
1464
1362
1359
1476
1308
1479
1344
1386
1434
1302
1485
1329
1407
1419
1317
1488
1314
1428
1392
1332
1482
1311
1452
1374
1347
1464
1302
1473
1353
1371
1452
1311
1482
1335
1395
1434
1317
1491
1317
1416
1404
1317
1479
1311
1440
1383
1335
1479
1308
1467
1365
1359
1467
1311
1476
1344
1383
1446
1317
1482
1323
1407
1419
1323
1479
1317
1434
1395
1332
1476
1311
1458
1371
1344
1467
1299
1473
1353
1374
1455
1314
1485
1338
1398
1431
1320
1488
1314
1416
1410
1320
1485
1308
1446
1383
1335
1476
1311
1467
1365
1359
1461
1299
1479
1341
1386
1443
1314
1491
1320
1407
1422
1314
1485
1311
1425
1392
1329
1473
1305
1458
1374
1347
1467
1308
1476
1356
1371
1455
1305
1476
1335
1398
1431
1311
1485
1317
1413
1401
1326
1485
1314
1440
1380
1335
1473
1311
1464
1362
1359
1464
1302
1473
1344
1389
1437
1311
1479
1323
1407
1416
1311
1491
1314
1425
1398
1332
1476
1305
1452
1377
1344
1467
1302
1473
1356
1371
1452
1311
1485
1335
1395
1434
1314
1479
1320
1419
1410
1329
1485
1311
1446
1383
1335
1473
1308
1461
1371
1362
1461
1305
1476
1353
1386
1437
1311
1485
1323
1401
1422
1317
1482
1314
1428
1395
1329
1479
1308
1455
1374
1350
1467
1302
1470
1359
1377
1449
1308
1479
1338
1395
1440
1317
1485
1314
1416
1410
1320
1482
1311
1440
1383
1338
1482
1314
1461
1365
1356
1467
1314
1473
1344
1386
1437
1311
1485
1329
1407
1416
1323
1485
1311
1428
1395
1332
1476
1308
1452
1383
1350
1473
1305
1470
1356
1374
1452
1308
1476
1338
1395
1437
1311
1488
1320
1413
1410
1317
1488
1311
1434
1389
1341
1476
1314
1458
1371
1359
1461
1305
1476
1356
1386
1443
1314
1482
1329
1401
1422
1317
1491
1311
1428
1395
1332
1476
1314
1449
1383
1344
1470
1302
1470
1362
1374
1458
1314
1482
1344
1395
1434
1314
1479
1323
1410
1407
1326
1482
1314
1434
1386
1335
1473
1308
1461
1371
1356
1461
1308
1473
1347
1383
1446
1308
1482
1329
1404
1422
1314
1482
1317
1428
1398
1326
1482
1314
1452
1380
1350
1467
1302
1470
1362
1374
1458
1305
1482
1344
1395
1434
1314
1479
1326
1410
1410
1317
1479
1314
1434
1389
1338
1476
1305
1461
1371
1353
1464
1311
1473
1356
1374
1446
1317
1482
1329
1404
1428
1317
1488
1314
1419
1404
1335
1488
1311
1443
1383
1335
1473
1314
1467
1362
1368
1455
1308
1476
1338
1386
1440
1314
1479
1323
1407
1416
1317
1479
1314
1428
1389
1335
1479
1308
1458
1371
1350
1467
1308
1473
1359
1383
1440
1308
1488
1329
1401
1428
1320
1488
1317
1416
1395
1329
1479
1314
1440
1386
1341
1470
1311
1464
1362
1365
1455
1308
1476
1341
1392
1440
1320
1479
1326
1407
1416
1320
1482
1314
1428
1392
1338
1476
1308
1452
1374
1353
1467
1308
1479
1350
1374
1440
1308
1476
1338
1398
1431
1320
1491
1317
1416
1401
1323
1482
1314
1443
1377
1344
1470
1314
1467
1362
1368
1461
1311
1476
1347
1392
1431
1317
1485
1326
1407
1419
1317
1482
1311
1425
1395
1332
1479
1308
1458
1377
1347
1464
1305
1473
1362
1377
1449
1311
1476
1332
1392
1434
1320
1482
1323
1413
1404
1323
1488
1314
1446
1380
1338
1467
1305
1464
1368
1365
1464
1308
1479
1347
1383
1443
1317
1479
1329
1407
1419
1320
1488
1317
1425
1392
1332
1476
1314
1452
1380
1347
1464
1308
1467
1353
1377
1446
1314
1479
1335
1392
1431
1320
1482
1314
1407
1410
1326
1482
1311
1440
1389
1341
1470
1311
1458
1365
1356
1458
1308
1476
1350
1389
1440
1311
1485
1329
1404
1425
1317
1488
1314
1422
1392
1326
1476
1317
1452
1374
1341
1464
1311
1467
1356
1368
1452
1317
1479
1335
1392
1431
1317
1479
1320
1416
1410
1326
1479
1314
1431
1389
1335
1476
1311
1455
1374
1359
1461
1308
1470
1356
1386
1446
1314
1479
1326
1401
1428
1314
1491
1320
1422
1401
1332
1479
1314
1446
1374
1344
1467
1311
1464
1362
1368
1452
1305
1473
1341
1389
1437
1317
1479
1320
1413
1410
1323
1479
1317
1431
1395
1338
1473
1311
1461
1371
1344
1464
1308
1470
1359
1380
1443
1311
1482
1332
1398
1431
1320
1485
1317
1416
1404
1326
1485
1311
1440
1386
1344
1467
1317
1461
1362
1362
1455
1308
1476
1353
1383
1434
1317
1476
1326
1404
1422
1326
1485
1317
1422
1401
1329
1473
1311
1449
1383
1341
1467
1308
1464
1359
1365
1458
1308
1479
1341
1389
1434
1314
1482
1326
1410
1407
1323
1479
1320
1440
1389
1338
1473
1314
1461
1368
1356
1461
1308
1473
1356
1377
1446
1317
1482
1335
1407
1425
1314
1491
1317
1416
1401
1329
1479
1314
1443
1377
1341
1470
1308
1464
1365
1371
1452
1311
1476
1344
1392
1437
1314
1473
1326
1407
1410
1323
1479
1314
1428
1392
1341
1470
1323
1449
1371
1350
1461
1311
1464
1350
1383
1434
1323
1470
1335
1407
1422
1329
1476
1323
1419
1401
1338
1473
1314
1446
1383
1347
1458
1317
1464
1362
1371
1449
1320
1464
1341
1392
1425
1323
1470
1326
1407
1407
1332
1476
1320
1431
1392
1347
1467
1317
1452
1368
1362
1452
1308
1467
1356
1386
1434
1320
1470
1332
1398
1419
1329
1470
1323
1416
1398
1338
1479
1317
1437
1383
1350
1461
1323
1458
1365
1368
1446
1320
1467
1347
1389
1434
1329
1470
1329
1401
1410
1326
1470
1323
1425
1389
1344
1470
1320
1449
1371
1353
1455
1320
1464
1362
1383
1437
1323
1476
1341
1395
1419
1326
1470
1323
1419
1398
1335
1467
1323
1434
1383
1353
1458
1317
1461
1371
1362
1449
1314
1467
1350
1395
1437
1320
1470
1332
1401
1416
1326
1473
1320
1422
1395
1338
1473
1317
1446
1380
1365
1461
1314
1464
1359
1374
1440
1317
1467
1347
1401
1422
1323
1473
1326
1413
1404
1329
1470
1326
1434
1386
1347
1461
1314
1458
1374
1362
1455
1320
1470
1353
1380
1440
1320
1473
1335
1404
1416
1332
1479
1323
1419
1392
1338
1467
1314
1440
1380
1356
1458
1320
1461
1356
1368
1452
1317
1470
1347
1395
1425
1320
1470
1332
1407
1410
1329
1479
1323
1425
1389
1341
1464
1320
1446
1374
1356
1458
1311
1467
1356
1383
1443
1323
1470
1335
1404
1428
1326
1470
1332
1410
1398
1335
1473
1323
1434
1380
1350
1467
1320
1458
1368
1362
1449
1317
1467
1347
1389
1431
1323
1476
1332
1404
1413
1335
1473
1320
1419
1389
1335
1467
1317
1449
1374
1356
1458
1317
1461
1356
1374
1440
1320
1467
1347
1395
1428
1326
1467
1329
1413
1401
1329
1473
1320
1428
1386
1344
1464
1320
1455
1368
1362
1455
1314
1467
1350
1383
1434
1320
1470
1335
1401
1422
1326
1473
1326
1422
1395
1338
1467
1320
1437
1377
1350
1458
1314
1461
1365
1368
1449
1311
1467
1350
1389
1428
1326
1470
1338
1407
1413
1329
1476
1320
1428
1395
1341
1464
1317
1446
1374
1356
1455
1323
1464
1356
1377
1443
1317
1467
1338
1398
1425
1326
1470
1323
1416
1401
1347
1461
1308
1437
1386
1353
1461
1317
1458
1371
1365
1449
1317
1467
1350
1392
1437
1323
1473
1332
1404
1419
1329
1476
1317
1419
1392
1341
1467
1314
1446
1374
1347
1458
1311
1467
1362
1377
1446
1314
1470
1338
1392
1422
1329
1470
1329
1404
1407
1335
1473
1323
1434
1389
1347
1467
1314
1449
1377
1359
1458
1311
1464
1353
1386
1440
1323
1470
1341
1401
1425
1329
1473
1326
1413
1401
1332
1473
1317
1431
1386
1341
1467
1317
1458
1374
1368
1455
1320
1470
1350
1383
1440
1323
1470
1329
1407
1416
1326
1476
1323
1422
1392
1335
1470
1320
1449
1374
1353
1458
1314
1458
1359
1368
1452
1320
1473
1344
1398
1425
1317
1476
1326
1410
1416
1329
1473
1323
1428
1389
1350
1470
1314
1449
1377
1359
1464
1317
1476
1356
1380
1440
1317
1467
1338
1401
1431
1326
1473
1326
1419
1395
1329
1476
1320
1437
1380
1347
1467
1317
1452
1365
1377
1455
1317
1470
1353
1392
1434
1320
1476
1329
1410
1422
1314
1485
1317
1425
1395
1323
1482
1308
1446
1383
1335
1476
1305
1464
1371
1353
1467
1311
1479
1347
1383
1449
1308
1488
1323
1404
1416
1308
1605
1149
1506
1380
1323
1497
1299
1455
1392
1350
1491
1287
1485
1365
1359
1464
1293
1497
1335
1380
1458
1293
1512
1305
1407
1428
1293
1506
1296
1431
1410
1299
1509
1281
1461
1383
1332
1494
1272
1479
1353
1359
1488
1278
1506
1323
1377
1449
1275
1515
1302
1416
1425
1290
1518
1287
1452
1398
1311
1506
1278
1482
1362
1344
1488
1278
1503
1329
1368
1461
1263
1521
1296
1404
1422
1290
1515
1296
1452
1401
1323
1491
1287
1479
1362
1359
1458
1299
1482
1323
1389
1440
1308
1494
1308
1413
1398
1320
1482
1305
1443
1374
1341
1467
1305
1467
1359
1365
1455
1308
1479
1338
1395
1428
1314
1479
1317
1416
1410
1320
1482
1308
1437
1383
1344
1473
1308
1461
1371
1359
1455
1311
1470
1353
1383
1443
1314
1479
1335
1404
1428
1326
1485
1311
1413
1395
1329
1476
1311
1443
1377
1344
1464
1308
1470
1368
1368
1452
1311
1482
1341
1392
1425
1320
1485
1326
1416
1413
1320
1482
1314
1431
1392
1338
1479
1308
1458
1371
1353
1455
1308
1476
1359
1380
1443
1320
1479
1332
1389
1425
1326
1482
1323
1416
1401
1332
1479
1314
1434
1377
1347
1467
1314
1464
1365
1368
1452
1308
1470
1347
1392
1434
1320
1482
1329
1407
1413
1329
1479
1320
1422
1395
1332
1473
1317
1449
1371
1347
1467
1311
1470
1356
1365
1455
1314
1473
1341
1392
1428
1320
1479
1329
1413
1410
1323
1482
1314
1428
1383
1344
1473
1311
1458
1368
1356
1458
1311
1473
1353
1377
1446
1314
1482
1332
1404
1425
1320
1473
1320
1422
1398
1335
1479
1317
1434
1383
1347
1464
1320
1458
1362
1362
1458
1311
1473
1347
1386
1434
1320
1479
1332
1410
1413
1326
1473
1323
1425
1389
1338
1476
1314
1443
1371
1359
1458
1314
1464
1359
1374
1443
1314
1479
1344
1398
1425
1323
1479
1326
1410
1410
1329
1476
1311
1428
1386
1338
1470
1320
1455
1365
1359
1455
1314
1470
1356
1377
1449
1323
1473
1335
1404
1425
1326
1473
1329
1422
1401
1332
1476
1317
1434
1377
1344
1461
1317
1464
1365
1371
1452
1311
1470
1347
1389
1437
1320
1479
1332
1407
1419
1329
1482
1317
1422
1392
1332
1470
1320
1446
1377
1350
1461
1317
1461
1356
1371
1446
1317
1467
1347
1401
1425
1326
1473
1326
1413
1410
1326
1476
1317
1434
1386
1338
1467
1317
1452
1368
1356
1458
1320
1464
1353
1377
1446
1317
1473
1335
1398
1428
1329
1467
1320
1413
1404
1335
1470
1314
1440
1383
1350
1464
1314
1458
1365
1359
1455
1314
1479
1359
1386
1434
1317
1479
1335
1407
1416
1329
1473
1320
1419
1392
1335
1470
1320
1443
1377
1353
1461
1317
1461
1359
1368
1452
1314
1473
1347
1392
1431
1329
1473
1326
1407
1419
1332
1473
1320
1428
1386
1338
1476
1320
1455
1374
1359
1458
1323
1464
1359
1377
1440
1317
1482
1338
1404
1422
1323
1476
1326
1422
1401
1329
1479
1314
1431
1380
1344
1467
1314
1452
1368
1356
1455
1311
1473
1353
1380
1440
1323
1473
1338
1407
1419
1323
1473
1329
1422
1401
1332
1470
1320
1440
1380
1353
1467
1317
1461
1362
1362
1455
1317
1473
1353
1392
1428
1320
1476
1329
1407
1413
1326
1473
1326
1428
1395
1341
1476
1317
1446
1377
1353
1464
1320
1458
1365
1368
1452
1320
1473
1344
1392
1425
1329
1476
1323
1410
1413
1335
1473
1314
1425
1392
1344
1467
1317
1449
1371
1356
1458
1320
1464
1356
1380
1443
1320
1470
1344
1398
1428
1323
1470
1323
1419
1407
1338
1473
1317
1431
1389
1353
1464
1320
1455
1362
1356
1455
1320
1467
1350
1380
1440
1317
1479
1332
1407
1416
1329
1473
1326
1419
1401
1335
1470
1320
1443
1374
1350
1458
1311
1458
1371
1365
1446
1317
1470
1350
1389
1431
1329
1476
1329
1410
1419
1329
1473
1320
1425
1389
1344
1473
1326
1446
1371
1353
1464
1320
1464
1362
1374
1449
1320
1467
1347
1398
1422
1323
1476
1326
1413
1410
1332
1470
1317
1434
1389
1338
1470
1320
1452
1371
1359
1458
1317
1464
1353
1383
1437
1323
1470
1338
1398
1419
1329
1470
1332
1413
1401
1341
1473
1314
1440
1377
1350
1464
1317
1452
1371
1359
1455
1311
1464
1350
1386
1437
1314
1479
1335
1401
1422
1335
1473
1326
1416
1395
1335
1470
1311
1440
1377
1350
1458
1317
1452
1362
1365
1446
1317
1470
1353
1392
1431
1323
1470
1338
1410
1413
1335
1470
1317
1422
1392
1341
1464
1314
1440
1371
1356
1461
1320
1461
1359
1368
1449
1320
1476
1344
1395
1428
1329
1479
1326
1413
1407
1332
1470
1317
1431
1383
1344
1473
1317
1443
1374
1359
1455
1326
1467
1359
1383
1443
1326
1470
1341
1398
1428
1329
1470
1332
1413
1404
1332
1470
1317
1431
1380
1353
1464
1317
1452
1368
1359
1446
1317
1470
1353
1383
1437
1323
1476
1338
1404
1416
1329
1476
1323
1419
1401
1332
1470
1317
1434
1377
1353
1458
1314
1455
1359
1362
1455
1317
1473
1350
1392
1437
1320
1470
1332
1407
1416
1341
1473
1326
1422
1392
1338
1470
1323
1443
1374
1353
1464
1311
1461
1359
1368
1446
1320
1470
1347
1395
1425
1326
1473
1332
1410
1416
1335
1467
1320
1422
1389
1347
1464
1314
1449
1371
1359
1461
1323
1458
1356
1371
1449
1323
1470
1347
1395
1428
1332
1470
1326
1413
1407
1335
1470
1323
1425
1383
1347
1464
1323
1446
1368
1362
1449
1320
1461
1359
1377
1440
1317
1476
1347
1404
1422
1329
1470
1329
1410
1401
1341
1476
1317
1428
1380
1347
1464
1317
1449
1362
1362
1446
1317
1467
1356
1389
1437
1320
1476
1335
1401
1410
1332
1473
1323
1422
1398
1329
1467
1317
1428
1377
1350
1455
1314
1455
1359
1365
1452
1317
1467
1353
1386
1431
1326
1470
1332
1407
1416
1332
1470
1320
1425
1395
1341
1464
1317
1437
1377
1356
1458
1317
1464
1362
1368
1446
1317
1467
1350
1395
1431
1323
1473
1335
1413
1410
1338
1473
1317
1428
1389
1344
1464
1314
1440
1374
1359
1452
1317
1458
1362
1371
1443
1317
1467
1350
1398
1422
1323
1473
1329
1413
1410
1332
1470
1320
1431
1392
1341
1464
1323
1446
1371
1359
1461
1323
1461
1353
1383
1440
1323
1473
1341
1395
1422
1329
1467
1326
1413
1404
1335
1470
1317
1428
1383
1344
1461
1317
1455
1368
1365
1449
1320
1461
1359
1383
1437
1326
1473
1338
1401
1419
1332
1464
1320
1419
1401
1338
1476
1326
1431
1380
1347
1458
1320
1449
1368
1368
1446
1320
1461
1350
1392
1434
1326
1467
1332
1407
1410
1335
1473
1323
1425
1398
1344
1470
1320
1434
1377
1356
1455
1320
1458
1362
1371
1440
1314
1467
1353
1389
1431
1326
1464
1332
1410
1410
1335
1473
1323
1425
1389
1344
1461
1326
1437
1371
1356
1461
1323
1461
1359
1368
1443
1320
1467
1347
1395
1425
1335
1473
1332
1413
1410
1335
1467
1326
1428
1392
1341
1461
1182
1608
1251
1419
1473
1209
1608
1230
1488
1422
1233
1599
1209
1536
1377
1278
1569
1197
1560
1317
1323
1545
1188
1599
1272
1377
1488
1197
1602
1239
1449
1443
1212
1605
1209
1509
1407
1260
1587
1203
1551
1350
1302
1563
1191
1587
1302
1356
1521
1188
1593
1257
1407
1470
1218
1605
1218
1473
1437
1236
1602
1203
1527
1383
1275
1572
1203
1566
1323
1329
1560
1197
1596
1278
1374
1494
1191
1608
1251
1434
1434
1206
1608
1221
1494
1413
1254
1599
1209
1536
1365
1299
1557
1197
1569
1302
1341
1530
1191
1593
1263
1395
1479
1206
1602
1236
1467
1431
1224
1596
1209
1518
1383
1275
1572
1197
1557
1335
1314
1545
1200
1581
1284
1368
1506
1191
1596
1257
1422
1455
1221
1608
1233
1479
1416
1254
1593
1212
1527
1365
1296
1569
1203
1569
1317
1338
1530
1188
1593
1272
1386
1488
1206
1605
1239
1449
1437
1227
1596
1215
1509
1398
1269
1581
1206
1542
1350
1317
1551
1200
1572
1302
1359
1506
1194
1590
1266
1407
1458
1215
1599
1239
1470
1422
1242
1590
1221
1527
1383
1293
1569
1203
1560
1323
1329
1536
1197
1581
1272
1377
1488
1197
1596
1248
1446
1449
1230
1593
1224
1500
1410
1260
1575
1209
1545
1356
1320
1548
1212
1560
1308
1347
1518
1185
1587
1266
1404
1479
1221
1602
1239
1470
1422
1242
1593
1218
1521
1383
1281
1572
1206
1551
1332
1326
1542
1200
1575
1287
1374
1488
1203
1587
1254
1422
1449
1221
1596
1224
1491
1404
1257
1584
1221
1533
1359
1317
1557
1209
1557
1317
1347
1515
1206
1584
1263
1386
1479
1218
1590
1245
1458
1428
1227
1590
1227
1506
1392
1278
1566
1215
1545
1338
1317
1542
1206
1572
1281
1362
1500
1200
1590
1260
1419
1449
1251
1590
1236
1482
1413
1254
1575
1212
1521
1368
1305
1560
1209
1554
1317
1347
1524
1206
1587
1272
1386
1473
1215
1584
1251
1446
1437
1236
1584
1230
1509
1389
1275
1566
1218
1539
1344
1320
1539
1215
1563
1305
1368
1494
1215
1587
1269
1413
1461
1224
1578
1245
1467
1422
1248
1569
1224
1515
1380
1290
1548
1212
1560
1326
1341
1524
1218
1572
1272
1380
1479
1212
1590
1263
1437
1437
1233
1581
1230
1497
1404
1269
1581
1215
1524
1362
1308
1545
1209
1566
1314
1344
1518
1200
1584
1272
1398
1473
1212
1593
1239
1458
1431
1227
1587
1215
1506
1392
1272
1575
1209
1545
1338
1314
1545
1206
1584
1290
1359
1500
1200
1590
1260
1419
1455
1221
1596
1233
1488
1410
1251
1590
1215
1524
1374
1293
1560
1209
1557
1317
1338
1524
1197
1590
1278
1386
1470
1209
1593
1245
1449
1443
1233
1593
1221
1503
1398
1272
1569
1212
1539
1350
1311
1548
1203
1572
1299
1353
1506
1206
1590
1263
1413
1458
1221
1599
1239
1473
1422
1239
1584
1218
1518
1374
1296
1560
1212
1551
1323
1332
1527
1206
1581
1281
1374
1485
1212
1590
1248
1449
1437
1227
1587
1227
1500
1401
1275
1572
1209
1536
1356
1311
1548
1212
1566
1308
1353
1506
1203
1581
1269
1410
1455
1227
1587
1245
1467
1422
1242
1587
1230
1512
1383
1293
1557
1218
1566
1329
1326
1539
1212
1575
1284
1371
1488
1212
1593
1254
1431
1446
1227
1584
1233
1497
1407
1257
1575
1221
1533
1362
1305
1551
1209
1557
1314
1344
1512
1212
1581
1269
1392
1467
1215
1584
1251
1458
1428
1239
1584
1221
1512
1392
1281
1569
1215
1542
1344
1326
1545
1212
1572
1293
1365
1494
1209
1584
1266
1422
1449
1227
1590
1239
1479
1410
1263
1575
1224
1527
1371
1308
1551
1215
1551
1314
1341
1524
1212
1584
1275
1386
1479
1221
1587
1257
1449
1434
1233
1587
1236
1497
1398
1281
1563
1215
1542
1347
1323
1539
1215
1563
1299
1356
1497
1206
1584
1272
1416
1455
1227
1584
1239
1476
1413
1251
1581
1221
1518
1374
1296
1545
1224
1548
1326
1332
1527
1212
1575
1281
1380
1479
1215
1584
1257
1434
1440
1233
1584
1230
1494
1401
1278
1572
1218
1533
1356
1311
1542
1215
1560
1314
1359
1506
1209
1581
1272
1401
1470
1230
1587
1248
1458
1422
1245
1581
1227
1512
1383
1287
1557
1218
1548
1329
1329
1524
1212
1575
1287
1377
1488
1212
1584
1260
1425
1446
1233
1584
1242
1488
1404
1263
1578
1224
1524
1362
1308
1548
1218
1557
1314
1356
1509
1206
1572
1278
1392
1467
1221
1584
1260
1458
1428
1248
1578
1230
1512
1383
1281
1563
1224
1539
1335
1326
1533
1218
1575
1293
1362
1491
1209
1581
1269
1422
1452
1236
1587
1242
1473
1413
1263
1572
1227
1518
1371
1308
1545
1218
1551
1323
1347
1518
1221
1578
1284
1389
1470
1221
1581
1257
1446
1431
1233
1581
1245
1503
1386
1278
1560
1230
1539
1350
1320
1536
1215
1566
1299
1365
1497
1212
1581
1269
1407
1458
1230
1584
1260
1476
1416
1254
1569
1233
1512
1380
1299
1554
1224
1548
1332
1344
1524
1221
1569
1284
1383
1470
1218
1581
1257
1437
1434
1233
1581
1242
1485
1404
1272
1569
1224
1530
1359
1317
1533
1221
1557
1311
1356
1506
1215
1578
1275
1398
1458
1227
1581
1239
1467
1425
1248
1572
1236
1515
1383
1293
1554
1224
1542
1326
1335
1524
1218
1566
1293
1374
1476
1218
1578
1263
1425
1446
1239
1572
1239
1485
1407
1275
1569
1227
1521
1359
1317
1536
1215
1551
1314
1347
1509
1221
1575
1281
1398
1458
1230
1578
1254
1455
1422
1251
1569
1236
1506
1386
1296
1551
1218
1536
1341
1329
1533
1215
1560
1302
1374
1485
1218
1581
1275
1419
1449
1236
1578
1248
1479
1413
1269
1569
1230
1524
1371
1311
1533
1221
1545
1320
1341
1515
1215
1572
1284
1392
1464
1230
1572
1257
1449
1425
1248
1572
1233
1497
1395
1293
1554
1233
1536
1347
1326
1530
1224
1563
1299
1368
1482
1215
1569
1275
1410
1455
1239
1578
1260
1473
1410
1263
1560
1233
1512
1371
1305
1539
1230
1545
1326
1344
1512
1221
1569
1293
1383
1473
1224
1575
1263
1437
1431
1242
1572
1242
1497
1404
1284
1557
1221
1527
1347
1326
1533
1221
1548
1305
1362
1491
1221
1569
1284
1410
1455
1233
1578
1251
1464
1416
1260
1569
1233
1506
1377
1305
1539
1233
1545
1329
1341
1515
1221
1569
1290
1383
1476
1221
1569
1266
1437
1434
1239
1572
1248
1494
1398
1278
1557
1233
1521
1362
1320
1539
1224
1551
1311
1359
1497
1221
1566
1284
1410
1458
1236
1578
1257
1461
1416
1263
1566
1230
1503
1380
1302
1542
1233
1536
1335
1335
1515
1221
1563
1290
1368
1473
1224
1569
1269
1431
1434
1239
1569
1248
1485
1404
1272
1557
1236
1518
1356
1317
1527
1230
1542
1317
1359
1500
1227
1566
1281
1401
1455
1239
1572
1263
1461
1413
1260
1569
1236
1491
1383
1299
1542
1236
1530
1338
1332
1518
1221
1557
1302
1383
1479
1233
1569
1272
1431
1449
1242
1572
1251
1476
1407
1269
1569
1227
1521
1362
1311
1536
1227
1542
1320
1350
1509
1224
1569
1281
1395
1455
1236
1572
1266
1455
1425
1251
1569
1239
1497
1392
1293
1545
1230
1530
1338
1332
1521
1224
1560
1299
1371
1482
1227
1572
1272
1419
1446
1236
1581
1251
1470
1410
1269
1563
1242
1512
1371
1311
1536
1227
1539
1323
1350
1506
1221
1566
1284
1395
1467
1230
1566
1263
1449
1431
1248
1566
1245
1500
1392
1290
1548
1233
1527
1350
1332
1530
1224
1557
1305
1365
1485
1221
1569
1275
1410
1446
1245
1569
1248
1473
1410
1263
1563
1233
1509
1371
1305
1533
1227
1539
1323
1344
1515
1227
1569
1287
1392
1470
1227
1572
1266
1449
1431
1248
1569
1239
1494
1401
1284
1554
1227
1527
1350
1320
1530
1224
1545
1308
1359
1491
1224
1572
1281
1410
1455
1239
1572
1254
1467
1416
1260
1563
1242
1512
1377
1302
1542
1236
1542
1329
1341
1512
1221
1566
1296
1392
1476
1230
1572
1266
1443
1428
1248
1569
1245
1485
1401
1284
1560
1233
1518
1362
1326
1524
1227
1545
1308
1359
1491
1221
1563
1281
1407
1455
1245
1569
1257
1464
1413
1266
1563
1242
1500
1377
1299
1539
1233
1536
1338
1344
1521
1224
1560
1296
1389
1473
1227
1566
1272
1431
1437
1242
1569
1248
1482
1401
1278
1554
1233
1518
1365
1320
1524
1227
1542
1311
1359
1497
1230
1560
1284
1401
1464
1242
1566
1260
1455
1422
1257
1563
1239
1500
1386
1299
1548
1236
1533
1335
1335
1521
1233
1554
1296
1371
1476
1230
1563
1269
1425
1440
1248
1566
1248
1476
1413
1272
1554
1242
1518
1362
1314
1524
1233
1545
1320
1353
1506
1230
1563
1281
1401
1458
1236
1569
1266
1449
1425
1257
1560
1239
1503
1383
1296
1545
1236
1527
1338
1329
1524
1236
1557
1299
1371
1482
1224
1569
1272
1419
1443
1242
1563
1260
1476
1410
1272
1554
1245
1512
1371
1311
1524
1233
1536
1314
1353
1500
1227
1566
1284
1389
1467
1233
1566
1269
1452
1425
1251
1563
1239
1494
1389
1296
1551
1236
1530
1341
1335
1518
1230
1554
1305
1368
1482
1230
1563
1278
1416
1443
1248
1572
1257
1476
1410
1266
1554
1242
1512
1374
1317
1527
1233
1536
1323
1356
1506
1233
1557
1293
1395
1467
1239
1563
1269
1452
1431
1254
1557
1242
1497
1395
1293
1551
1233
1524
1347
1338
1527
1236
1551
1311
1371
1482
1230
1563
1281
1419
1446
1245
1569
1257
1467
1404
1275
1557
1242
1506
1368
1317
1524
1236
1530
1323
1353
1509
1227
1554
1290
1395
1464
1239
1563
1266
1440
1431
1251
1566
1248
1491
1389
1299
1551
1239
1524
1347
1332
1527
1236
1548
1305
1368
1482
1230
1569
1284
1410
1446
1251
1563
1263
1467
1407
1272
1557
1245
1512
1371
1308
1524
1242
1530
1320
1347
1503
1227
1557
1290
1392
1464
1242
1563
1266
1443
1431
1257
1554
1248
1497
1392
1299
1545
1239
1527
1353
1329
1521
1239
1545
1311
1368
1479
1227
1566
1278
1413
1449
1257
1563
1260
1467
1410
1281
1554
1245
1500
1374
1314
1527
1236
1530
1332
1344
1503
1236
1557
1296
1383
1464
1239
1560
1266
1446
1425
1245
1566
1248
1488
1395
1293
1548
1239
1518
1353
1329
1518
1233
1542
1308
1362
1488
1236
1557
1275
1410
1446
1254
1563
1263
1461
1413
1263
1557
1245
1500
1380
1317
1533
1242
1530
1326
1353
1506
1230
1557
1290
1386
1467
1236
1560
1272
1443
1431
1254
1554
1251
1482
1395
1293
1545
1239
1515
1350
1338
1524
1239
1542
1308
1368
1491
1236
1560
1281
1407
1449
1245
1566
1260
1464
1416
1272
1551
1248
1503
1383
1311
1521
1251
1530
1332
1347
1500
1236
1557
1290
1386
1464
1239
1557
1272
1437
1431
1251
1563
1254
1485
1404
1290
1545
1236
1515
1356
1338
1518
1239
1542
1323
1359
1485
1230
1554
1281
1404
1449
1251
1566
1266
1458
1410
1269
1551
1242
1506
1377
1305
1539
1236
1524
1338
1338
1509
1236
1545
1305
1380
1467
1239
1566
1281
1431
1440
1248
1554
1254
1482
1404
1281
1551
1242
1509
1365
1317
1524
1242
1533
1329
1359
1503
1236
1557
1302
1401
1458
1248
1560
1266
1449
1428
1257
1554
1251
1491
1389
1308
1539
1245
1518
1350
1332
1524
1236
1545
1308
1368
1476
1236
1557
1278
1416
1440
1254
1566
1263
1470
1410
1275
1554
1245
1500
1374
1314
1521
1236
1527
1332
1347
1503
1239
1560
1290
1392
1464
1239
1563
1275
1446
1425
1254
1557
1251
1491
1398
1293
1539
1242
1518
1350
1335
1515
1236
1542
1314
1368
1488
1239
1560
1290
1404
1446
1248
1557
1269
1458
1416
1269
1548
1254
1500
1380
1308
1533
1245
1533
1332
1347
1503
1236
1551
1296
1377
1464
1239
1557
1278
1425
1437
1251
1560
1257
1479
1398
1293
1551
1242
1503
1368
1326
1524
1242
1536
1320
1359
1491
1233
1548
1284
1398
1452
1248
1557
1266
1452
1425
1269
1545
1251
1497
1386
1305
1536
1242
1521
1347
1335
1509
1236
1542
1305
1374
1476
1233
1554
1278
1416
1440
1260
1554
1266
1476
1398
1278
1551
1248
1500
1365
1326
1515
1248
1536
1326
1356
1491
1251
1548
1293
1398
1452
1248
1557
1269
1452
1419
1269
1548
1254
1488
1395
1305
1533
1242
1521
1353
1344
1509
1248
1539
1311
1371
1473
1239
1554
1290
1419
1443
1266
1551
1263
1464
1404
1284
1542
1245
1506
1371
1317
1518
1248
1524
1326
1353
1497
1245
1545
1299
1392
1452
1251
1554
1281
1437
1425
1263
1554
1260
1488
1395
1296
1539
1251
1515
1356
1338
1506
1242
1536
1314
1365
1482
1248
1548
1287
1401
1446
1260
1551
1272
1461
1410
1272
1551
1251
1497
1374
1323
1524
1245
1524
1335
1347
1500
1245
1545
1302
1386
1467
1245
1551
1278
1431
1428
1260
1551
1263
1476
1392
1293
1542
1248
1506
1365
1323
1512
1251
1527
1320
1359
1488
1248
1545
1293
1398
1446
1254
1545
1269
1446
1419
1272
1545
1257
1491
1389
1308
1530
1248
1512
1350
1344
1512
1245
1539
1305
1380
1467
1248
1548
1281
1422
1437
1263
1551
1266
1467
1398
1290
1539
1251
1494
1374
1323
1512
1251
1530
1326
1359
1491
1251
1548
1299
1395
1461
1251
1551
1278
1440
1428
1266
1542
1263
1488
1386
1305
1533
1254
1509
1353
1344
1503
1248
1530
1320
1371
1479
1242
1545
1287
1413
1434
1260
1548
1269
1458
1413
1284
1536
1260
1503
1374
1323
1518
1248
1527
1332
1356
1494
1251
1548
1302
1389
1461
1248
1548
1275
1440
1425
1272
1545
1266
1482
1389
1302
1533
1251
1506
1356
1341
1509
1248
1527
1317
1365
1476
1254
1545
1290
1407
1449
1263
1545
1275
1458
1407
1281
1542
1257
1494
1377
1317
1521
1257
1518
1338
1350
1503
1254
1539
1299
1386
1458
1257
1554
1278
1431
1434
1266
1545
1263
1473
1395
1296
1536
1254
1500
1359
1335
1503
1251
1524
1323
1371
1485
1248
1545
1293
1398
1443
1263
1551
1269
1449
1419
1281
1548
1260
1488
1386
1311
1521
1251
1512
1344
1344
1500
1248
1539
1308
1392
1458
1251
1548
1290
1422
1431
1266
1548
1269
1467
1407
1290
1536
1254
1506
1374
1335
1506
1257
1524
1317
1365
1491
1245
1542
1296
1395
1452
1257
1545
1275
1443
1413
1275
1548
1257
1482
1386
1308
1527
1248
1518
1350
1344
1506
1251
1524
1308
1371
1464
1257
1536
1293
1410
1431
1269
1542
1272
1464
1404
1287
1536
1257
1497
1368
1326
1509
1257
1515
1323
1365
1491
1245
1539
1299
1389
1452
1263
1542
1284
1443
1410
1272
1539
1260
1482
1392
1308
1530
1251
1512
1347
1335
1497
1260
1521
1314
1377
1485
1239
1545
1287
1413
1434
1269
1545
1278
1467
1401
1284
1539
1254
1488
1380
1323
1512
1254
1518
1326
1359
1491
1251
1539
1305
1395
1446
1260
1542
1278
1437
1425
1269
1545
1263
1476
1386
1308
1530
1254
1503
1356
1338
1503
1251
1527
1320
1374
1473
1251
1539
1293
1416
1443
1269
1542
1275
1464
1407
1287
1533
1260
1497
1377
1323
1521
1254
1512
1335
1359
1494
1254
1536
1305
1386
1452
1254
1548
1281
1428
1419
1269
1539
1269
1467
1398
1299
1527
1254
1500
1353
1344
1497
1257
1530
1320
1371
1476
1257
1539
1296
1413
1440
1263
1542
1281
1458
1407
1284
1533
1266
1491
1380
1320
1521
1257
1521
1341
1350
1494
1254
1536
1308
1386
1458
1254
1548
1284
1431
1422
1278
1542
1269
1476
1392
1305
1527
1254
1506
1356
1341
1503
1248
1524
1323
1371
1482
1257
1545
1299
1404
1440
1263
1542
1278
1455
1416
1281
1533
1263
1488
1380
1317
1521
1251
1509
1338
1347
1491
1260
1524
1305
1389
1455
1254
1542
1284
1425
1419
1269
1542
1272
1470
1395
1299
1530
1260
1503
1365
1338
1503
1251
1527
1320
1374
1479
1254
1539
1296
1407
1431
1269
1536
1275
1446
1413
1272
1530
1254
1485
1380
1323
1518
1257
1515
1344
1350
1494
1251
1533
1305
1383
1455
1254
1539
1296
1422
1428
1269
1545
1272
1473
1401
1302
1527
1257
1506
1362
1335
1506
1251
1521
1323
1371
1482
1254
1536
1293
1404
1437
1266
1542
1278
1452
1410
1281
1533
1260
1494
1380
1323
1527
1251
1506
1338
1353
1491
1254
1533
1305
1386
1455
1263
1539
1287
1428
1425
1281
1536
1272
1479
1398
1302
1530
1260
1500
1356
1341
1503
1254
1521
1317
1371
1479
1254
1539
1293
1401
1443
1269
1536
1278
1452
1407
1281
1536
1260
1485
1383
1329
1512
1257
1509
1341
1362
1497
1260
1530
1290
1389
1464
1257
1542
1290
1428
1425
1275
1536
1272
1473
1398
1299
1524
1260
1497
1359
1338
1497
1266
1518
1326
1368
1479
1263
1536
1293
1410
1440
1269
1539
1278
1455
1410
1284
1530
1260
1491
1377
1326
1512
1257
1515
1341
1356
1497
1254
1539
1302
1389
1449
1260
1542
1287
1434
1416
1275
1542
1275
1470
1398
1305
1524
1257
1500
1359
1347
1497
1260
1521
1323
1368
1476
1254
1542
1296
1413
1440
1269
1536
1278
1452
1410
1290
1533
1263
1491
1374
1329
1509
1257
1512
1341
1353
1488
1263
1530
1311
1392
1446
1254
1539
1284
1434
1422
1284
1530
1266
1473
1386
1311
1521
1263
1500
1350
1347
1494
1260
1518
1317
1374
1464
1263
1533
1296
1413
1431
1272
1533
1275
1458
1404
1293
1527
1263
1494
1374
1329
1506
1260
1512
1332
1362
1485
1257
1530
1299
1392
1452
1263
1545
1287
1443
1419
1275
1533
1275
1476
1380
1311
1524
1260
1503
1350
1350
1494
1263
1521
1317
1383
1467
1260
1536
1290
1416
1434
1275
1539
1284
1464
1398
1296
1530
1269
1503
1365
1332
1509
1266
1512
1332
1362
1485
1257
1530
1302
1404
1443
1275
1530
1281
1458
1407
1281
1536
1269
1479
1383
1314
1521
1263
1503
1350
1350
1494
1260
1527
1314
1386
1464
1266
1533
1299
1422
1425
1275
1536
1281
1461
1395
1302
1521
1263
1491
1362
1335
1503
1263
1518
1332
1371
1479
1257
1533
1302
1401
1437
1275
1533
1284
1452
1410
1287
1527
1272
1485
1383
1323
1509
1263
1509
1341
1353
1491
1263
1524
1314
1383
1452
1257
1533
1287
1431
1419
1281
1536
1272
1467
1392
1305
1518
1269
1497
1356
1347
1488
1269
1515
1317
1374
1467
1263
1527
1302
1413
1434
1275
1530
1275
1455
1407
1293
1524
1266
1494
1377
1329
1509
1260
1509
1335
1356
1485
1257
1524
1311
1389
1449
1260
1536
1284
1431
1416
1284
1533
1278
1473
1392
1305
1521
1272
1497
1365
1344
1500
1263
1512
1332
1374
1467
1266
1533
1305
1407
1437
1266
1536
1284
1446
1413
1287
1530
1272
1476
1383
1317
1515
1263
1503
1347
1350
1488
1266
1515
1323
1383
1458
1266
1527
1296
1419
1431
1272
1527
1281
1458
1395
1290
1530
1269
1485
1377
1332
1506
1263
1506
1335
1362
1482
1263
1524
1308
1392
1452
1272
1536
1290
1431
1416
1284
1527
1281
1473
1395
1308
1515
1272
1500
1365
1344
1491
1263
1518
1329
1368
1464
1263
1530
1299
1401
1437
1272
1530
1284
1449
1404
1287
1524
1272
1485
1383
1323
1515
1269
1506
1341
1350
1494
1272
1521
1311
1392
1452
1263
1527
1296
1428
1425
1281
1536
1284
1458
1398
1302
1521
1266
1497
1374
1335
1500
1263
1509
1335
1362
1482
1263
1521
1299
1392
1440
1266
1530
1290
1431
1419
1284
1524
1278
1473
1392
1317
1512
1269
1500
1353
1350
1491
1266
1515
1323
1374
1467
1269
1527
1299
1413
1431
1275
1530
1281
1449
1410
1299
1521
1272
1482
1374
1326
1506
1266
1500
1341
1359
1482
1263
1524
1308
1389
1455
1260
1533
1296
1425
1422
1284
1530
1284
1467
1398
1308
1518
1266
1494
1368
1344
1497
1266
1509
1332
1365
1470
1263
1527
1302
1398
1443
1272
1530
1284
1443
1410
1284
1518
1272
1479
1380
1320
1509
1266
1500
1350
1353
1488
1266
1512
1320
1374
1464
1269
1527
1296
1410
1431
1278
1536
1281
1455
1389
1302
1521
1266
1491
1374
1332
1503
1263
1512
1338
1356
1479
1272
1521
1305
1389
1455
1263
1530
1293
1428
1422
1293
1530
1281
1473
1389
1311
1521
1266
1494
1362
1347
1497
1272
1515
1326
1374
1467
1266
1524
1302
1404
1434
1278
1527
1281
1449
1404
1296
1521
1275
1482
1380
1323
1512
1275
1503
1347
1353
1491
1269
1515
1323
1386
1452
1269
1524
1293
1416
1419
1287
1527
1284
1461
1395
1308
1512
1266
1488
1371
1338
1500
1272
1509
1329
1362
1473
1266
1527
1302
1392
1443
1272
1527
1287
1434
1413
1287
1521
1278
1473
1389
1320
1506
1269
1494
1350
1353
1488
1269
1512
1320
1374
1464
1269
1524
1305
1413
1428
1281
1515
1287
1458
1401
1302
1518
1269
1485
1374
1338
1503
1263
1509
1335
1365
1479
1266
1518
1314
1392
1452
1272
1533
1293
1425
1419
1284
1521
1287
1464
1389
1308
1512
1272
1497
1359
1341
1491
1272
1515
1326
1368
1467
1269
1524
1305
1404
1437
1275
1524
1293
1443
1410
1293
1521
1272
1479
1386
1329
1506
1275
1500
1344
1353
1488
1275
1515
1317
1383
1458
1269
1524
1290
1419
1422
1293
1521
1287
1464
1398
1302
1512
1269
1488
1368
1338
1494
1272
1503
1329
1368
1479
1269
1521
1308
1395
1440
1272
1533
1287
1434
1419
1287
1518
1281
1476
1380
1317
1512
1272
1497
1353
1350
1488
1263
1512
1326
1377
1461
1272
1521
1290
1416
1428
1290
1527
1287
1449
1401
1299
1512
1275
1491
1374
1332
1497
1266
1500
1341
1365
1476
1269
1518
1317
1395
1443
1272
1530
1290
1425
1416
1287
1524
1284
1467
1392
1320
1515
1269
1488
1365
1350
1488
1275
1509
1332
1371
1470
1275
1524
1302
1404
1431
1278
1524
1287
1443
1404
1299
1515
1281
1482
1377
1326
1503
1272
1503
1347
1359
1485
1272
1515
1314
1386
1449
1269
1527
1293
1425
1419
1290
1521
1281
1458
1392
1308
1512
1272
1497
1365
1347
1491
1272
1503
1329
1371
1473
1275
1527
1305
1398
1431
1275
1524
1293
1440
1410
1296
1512
1278
1470
1389
1323
1509
1275
1494
1356
1356
1482
1269
1509
1323
1386
1458
1272
1527
1299
1416
1422
1284
1521
1287
1455
1395
1302
1509
1272
1485
1371
1335
1497
1278
1506
1335
1368
1476
1269
1512
1314
1395
1440
1281
1521
1293
1428
1413
1293
1515
1281
1473
1386
1326
1515
1272
1494
1356
1350
1482
1272
1506
1329
1380
1464
1275
1521
1302
1413
1428
1287
1524
1287
1443
1407
1299
1512
1272
1479
1377
1338
1497
1272
1500
1341
1368
1479
1275
1515
1311
1389
1446
1278
1521
1296
1425
1422
1296
1521
1290
1461
1389
1311
1512
1272
1488
1368
1350
1485
1272
1506
1326
1371
1473
1275
1521
1308
1401
1434
1284
1524
1287
1440
1404
1290
1512
1281
1479
1380
1326
1506
1272
1497
1344
1359
1476
1278
1509
1320
1389
1449
1281
1521
1299
1422
1422
1287
1521
1284
1452
1392
1308
1515
1275
1485
1365
1341
1497
1275
1506
1332
1368
1473
1278
1524
1308
1395
1437
1284
1530
1293
1440
1407
1296
1512
1284
1479
1383
1323
1506
1272
1494
1353
1362
1482
1284
1512
1329
1380
1452
1275
1521
1305
1410
1425
1296
1518
1284
1452
1392
1302
1512
1275
1485
1371
1332
1491
1281
1503
1341
1365
1476
1275
1515
1308
1398
1437
1275
1521
1296
1434
1413
1293
1515
1281
1473
1383
1317
1506
1275
1488
1362
1347
1485
1272
1509
1326
1377
1455
1275
1515
1305
1416
1428
1284
1524
1293
1446
1395
1299
1515
1275
1479
1380
1341
1497
1275
1497
1338
1362
1473
1278
1512
1311
1395
1449
1281
1518
1296
1425
1416
1299
1515
1287
