1820
1810.0
1800.0
1800.0
1800.0
1800.0
1790.0
1790.0
1790.0
1790.0
1800.0
1790.0
1800.0
1780.0
1790.0
1790.0
1800.0
1800.0
1810.0
1860.0
1910.0
1950.0
1990.0
2030.0
2070.0
2090.0
2120.0
2160.0
2190.0
2230.0
2260.0
2290.0
2310.0
2310.0
2320.0
2340.0
2350.0
2400.0
2410.0
2410.0
2420.0
2410.0
2430.0
2430.0
2450.0
2450.0
2460.0
2460.0
2470.0
2470.0
2470.0
2480.0
2460.0
2430.0
2390.0
2370.0
2320.0
2300.0
2280.0
2250.0
2220.0
2170.0
2110.0
2060.0
2020.0
1980.0
1930.0
1900.0
1840.0
1810.0
1800.0
1770.0
1750.0
1710.0
1670.0
1640.0
1610.0
1590.0
1600.0
1600.0
1610.0
1610.0
1600.0
1600.0
1600.0
1590.0
1570.0
1570.0
1560.0
1560.0
1570.0
1580.0
1600.0
1610.0
1650.0
1670.0
1690.0
1720.0
1730.0
1740.0
1770.0
1790.0
1810.0
1830.0
1840.0
1850.0
1850.0
1830.0
1800.0
1780.0
1760.0
1700.0
1670.0
1620.0
1610.0
1600.0
1570.0
1560.0
1530.0
1530.0
1550.0
1600.0
1620.0
1680.0
1670.0
1690.0
1710.0
1710.0
1740.0
1760.0
1800.0
1840.0
1890.0
1970.0
2010.0
2080.0
2130.0
2200.0
2260.0
2290.0
2290.0
2280.0
2240.0
2220.0
2220.0
2220.0
2230.0
2240.0
2250.0
2250.0
2220.0
2180.0
2140.0
2150.0
2170.0
2190.0
2210.0
2220.0
2260.0
2250.0
2220.0
2180.0
2080.0
2000.0
1920.0
1850.0
1810.0
1780.0
1760.0
1740.0
1730.0
1750.0
1760.0
1800.0
1820.0
1860.0
1880.0
1940.0
1970.0
2010.0
2020.0
2050.0
2070.0
2110.0
2140.0
2170.0
2190.0
2190.0
2220.0
2240.0
2270.0
2320.0
2360.0
2380.0
2410.0
2430.0
2430.0
2450.0
2460.0
2470.0
2490.0
2490.0
2480.0
2500.0
2500.0
2510.0
2490.0
2510.0
2510.0
2500.0
2480.0
2470.0
2440.0
2410.0
2380.0
2360.0
2330.0
2320.0
2290.0
2260.0
2210.0
2160.0
2110.0
2060.0
2000.0
1970.0
1930.0
1910.0
1890.0
1850.0
1810.0
1760.0
1720.0
1670.0
1620.0
1580.0
1550.0
1520.0
1510.0
1510.0
1510.0
1500.0
1480.0
1490.0
1490.0
1500.0
1510.0
1510.0
1540.0
1560.0
1600.0
1630.0
1660.0
1680.0
1680.0
1680.0
1700.0
1700.0
1750.0
1780.0
1820.0
1860.0
1880.0
1920.0
1950.0
2000.0
2050.0
2100.0
2150.0
2170.0
2210.0
2220.0
2260.0
2280.0
2320.0
2320.0
2320.0
2330.0
2350.0
2360.0
2390.0
2420.0
2430.0
2460.0
2450.0
2470.0
2460.0
2460.0
2450.0
2440.0
2440.0
2440.0
2440.0
2430.0
2430.0
2430.0
2400.0
2360.0
2320.0
2270.0
2210.0
2150.0
2080.0
2020.0
1960.0
1920.0
1880.0
1820.0
1780.0
1720.0
1680.0
1640.0
1610.0
1570.0
1530.0
1480.0
1460.0
1420.0
1410.0
1430.0
1430.0
1460.0
1460.0
1480.0
1500.0
1500.0
1530.0
1560.0
1590.0
1620.0
1660.0
1690.0
1720.0
1730.0
1750.0
1770.0
1800.0
1830.0
1850.0
1900.0
1930.0
1960.0
1990.0
2020.0
2030.0
2030.0
2040.0
2050.0
2050.0
2080.0
2130.0
2180.0
2210.0
2220.0
2250.0
2250.0
2260.0
2300.0
2350.0
2380.0
2420.0
2430.0
2420.0
2430.0
2440.0
2460.0
2470.0
2460.0
2460.0
2450.0
2460.0
2440.0
2440.0
2420.0
2410.0
2370.0
2350.0
2320.0
2310.0
2280.0
2260.0
2200.0
2160.0
2080.0
2040.0
1970.0
1920.0
1870.0
1810.0
1770.0
1700.0
1650.0
1600.0
1520.0
1430.0
1330.0
1250.0
1170.0
1080.0
1010.0
943.0
889.0
822.0
765.0
717.0
689.0
700.0
751.0
801.0
847.0
870.0
877.0
901.0
883.0
924.0
981.0
1070.0
1150.0
1240.0
1280.0
1320.0
1390.0
1490.0
1600.0
1720.0
1800.0
1900.0
1990.0
2090.0
2180.0
2240.0
2320.0
2380.0
2470.0
2540.0
2600.0
2640.0
2710.0
2780.0
2850.0
2900.0
2950.0
2990.0
3000.0
3020.0
3010.0
3030.0
3020.0
3010.0
2990.0
2950.0
2910.0
2850.0
2770.0
2710.0
2660.0
2610.0
2590.0
2540.0
2510.0
2480.0
2430.0
2390.0
2340.0
2280.0
2210.0
2150.0
2090.0
2040.0
1990.0
1940.0
1900.0
1850.0
1790.0
1750.0
1710.0
1700.0
1660.0
1630.0
1610.0
1600.0
1580.0
1580.0
1570.0
1560.0
1570.0
1550.0
1550.0
1540.0
1550.0
1560.0
1570.0
1600.0
1630.0
1680.0
1720.0
1760.0
1810.0
1810.0
1860.0
1880.0
1900.0
1940.0
1960.0
2000.0
2050.0
2080.0
2120.0
2160.0
2170.0
2200.0
2210.0
2240.0
2270.0
2300.0
2310.0
2330.0
2350.0
2370.0
2410.0
2440.0
2470.0
2480.0
2480.0
2480.0
2480.0
2470.0
2460.0
2460.0
2440.0
2460.0
2440.0
2450.0
2440.0
2460.0
2460.0
2420.0
2380.0
2350.0
2290.0
2250.0
2190.0
2140.0
2100.0
2050.0
2020.0
1960.0
1940.0
1890.0
1850.0
1830.0
1780.0
1750.0
1730.0
1700.0
1680.0
1650.0
1640.0
1610.0
1600.0
1570.0
1560.0
1550.0
1550.0
1550.0
1560.0
1560.0
1560.0
1560.0
1560.0
1570.0
1580.0
1600.0
1630.0
1660.0
1680.0
1730.0
1760.0
1800.0
1820.0
1870.0
1900.0
1930.0
1960.0
2000.0
2020.0
2040.0
2080.0
2100.0
2140.0
2160.0
2190.0
2210.0
2230.0
2240.0
2250.0
2250.0
2230.0
2240.0
2230.0
2220.0
2210.0
2220.0
2230.0
2230.0
2240.0
2240.0
2240.0
2230.0
2220.0
2180.0
2170.0
2160.0
2150.0
2110.0
2060.0
2010.0
1940.0
1880.0
1860.0
1840.0
1800.0
1770.0
1760.0
1770.0
1780.0
1800.0
1820.0
1820.0
1820.0
1840.0
1830.0
1830.0
1820.0
1780.0
1740.0
1710.0
1690.0
1680.0
1660.0
1660.0
1660.0
1680.0
1680.0
1680.0
1660.0
1670.0
1670.0
1700.0
1730.0
1760.0
1780.0
1790.0
1780.0
1790.0
1830.0
1860.0
1900.0
1950.0
1970.0
2000.0
2030.0
2070.0
2090.0
2120.0
2140.0
2160.0
2200.0
2220.0
2240.0
2260.0
2270.0
2290.0
2310.0
2330.0
2350.0
2360.0
2380.0
2390.0
2400.0
2410.0
2420.0
2430.0
2440.0
2440.0
2440.0
2430.0
2440.0
2440.0
2430.0
2420.0
2420.0
2400.0
2390.0
2380.0
2370.0
2340.0
2300.0
2280.0
2230.0
2210.0
2160.0
2110.0
2070.0
2000.0
1970.0
1900.0
1870.0
1840.0
1820.0
1810.0
1770.0
1750.0
1700.0
1680.0
1640.0
1620.0
1590.0
1570.0
1550.0
1540.0
1560.0
1580.0
1610.0
1610.0
1590.0
1570.0
1540.0
1540.0
1540.0
1540.0
1570.0
1590.0
1620.0
1660.0
1710.0
1750.0
1780.0
1830.0
1860.0
1920.0
1960.0
2010.0
2040.0
2060.0
2080.0
2090.0
2110.0
2130.0
2140.0
2170.0
2190.0
2220.0
2250.0
2280.0
2290.0
2310.0
2310.0
2330.0
2310.0
2300.0
2290.0
2270.0
2250.0
2240.0
2240.0
2230.0
2220.0
2210.0
2190.0
2170.0
2150.0
2130.0
2130.0
2120.0
2130.0
2110.0
2070.0
2030.0
2000.0
1950.0
1930.0
1880.0
1860.0
1800.0
1750.0
1690.0
1640.0
1600.0
1560.0
1530.0
1500.0
1480.0
1480.0
1480.0
1480.0
1470.0
1450.0
1430.0
1420.0
1410.0
1410.0
1420.0
1430.0
1420.0
1440.0
1470.0
1530.0
1580.0
1630.0
1700.0
1730.0
1780.0
1830.0
1880.0
1920.0
1960.0
1980.0
2010.0
2030.0
2060.0
2100.0
2130.0
2160.0
2180.0
2200.0
2210.0
2240.0
2250.0
2280.0
2320.0
2310.0
2310.0
2280.0
2200.0
2150.0
2080.0
2050.0
2040.0
2020.0
2020.0
2010.0
2000.0
2000.0
2020.0
2060.0
2090.0
2080.0
2090.0
2080.0
2080.0
2070.0
2080.0
2120.0
2160.0
2240.0
2310.0
2320.0
2300.0
2280.0
2250.0
2220.0
2190.0
2150.0
2100.0
2050.0
2050.0
2080.0
2130.0
2180.0
2210.0
2210.0
2190.0
2170.0
2130.0
2110.0
2080.0
2020.0
1970.0
1900.0
1850.0
1800.0
1770.0
1750.0
1730.0
1720.0
1710.0
1710.0
1710.0
1710.0
1730.0
1740.0
1760.0
1770.0
1800.0
1840.0
1870.0
1880.0
1910.0
1920.0
1940.0
1970.0
1990.0
2030.0
2080.0
2120.0
2150.0
2170.0
2200.0
2220.0
2240.0
2270.0
2290.0
2320.0
2340.0
2350.0
2360.0
2380.0
2400.0
2410.0
2420.0
2420.0
2420.0
2420.0
2410.0
2410.0
2400.0
2410.0
2410.0
2400.0
2400.0
2370.0
2340.0
2290.0
2260.0
2230.0
2180.0
2130.0
2080.0
2060.0
2020.0
2000.0
1950.0
1910.0
1860.0
1810.0
1790.0
1790.0
1790.0
1770.0
1710.0
1660.0
1590.0
1540.0
1490.0
1450.0
1440.0
1440.0
1440.0
1470.0
1480.0
1500.0
1520.0
1530.0
1540.0
1560.0
1590.0
1590.0
1600.0
1610.0
1610.0
1610.0
1630.0
1650.0
1650.0
1670.0
1700.0
1720.0
1750.0
1790.0
1830.0
1870.0
1910.0
1950.0
1990.0
2030.0
2060.0
2090.0
2100.0
2130.0
2170.0
2220.0
2280.0
2350.0
2390.0
2410.0
2400.0
2390.0
2380.0
2360.0
2320.0
2280.0
2250.0
2230.0
2230.0
2240.0
2250.0
2270.0
2310.0
2340.0
2350.0
2350.0
2350.0
2360.0
2350.0
2340.0
2330.0
2340.0
2340.0
2340.0
2320.0
2320.0
2310.0
2280.0
2230.0
2160.0
2090.0
2030.0
1990.0
1930.0
1900.0
1840.0
1800.0
1770.0
1750.0
1720.0
1720.0
1720.0
1710.0
1700.0
1690.0
1680.0
1660.0
1650.0
1640.0
1650.0
1640.0
1660.0
1690.0
1700.0
1710.0
1720.0
1750.0
1770.0
1780.0
1800.0
1810.0
1830.0
1860.0
1890.0
1930.0
1970.0
2020.0
2060.0
2090.0
2110.0
2120.0
2150.0
2150.0
2180.0
2200.0
2230.0
2250.0
2280.0
2300.0
2330.0
2330.0
2340.0
2350.0
2350.0
2350.0
2340.0
2340.0
2340.0
2350.0
2380.0
2410.0
2430.0
2470.0
2490.0
2480.0
2440.0
2400.0
2340.0
2300.0
2250.0
2200.0
2150.0
2110.0
2100.0
2090.0
2050.0
2030.0
1960.0
1900.0
1860.0
1820.0
1780.0
1740.0
1690.0
1680.0
1650.0
1640.0
1630.0
1630.0
1630.0
1630.0
1630.0
1610.0
1590.0
1570.0
1560.0
1550.0
1530.0
1540.0
1530.0
1530.0
1540.0
1550.0
1550.0
1560.0
1590.0
1620.0
1620.0
1620.0
1630.0
1690.0
1730.0
1790.0
1840.0
1870.0
1910.0
1940.0
1970.0
2000.0
2020.0
2090.0
2140.0
2190.0
2240.0
2280.0
2310.0
2310.0
2350.0
2390.0
2430.0
2460.0
2490.0
2490.0
2490.0
2500.0
2490.0
2500.0
2510.0
2520.0
2520.0
2530.0
2520.0
2530.0
2520.0
2520.0
2530.0
2520.0
2520.0
2500.0
2460.0
2420.0
2370.0
2320.0
2300.0
2250.0
2220.0
2170.0
2120.0
2090.0
2040.0
2000.0
1950.0
1900.0
1850.0
1790.0
1750.0
1700.0
1650.0
1620.0
1590.0
1530.0
1500.0
1470.0
1450.0
1460.0
1450.0
1450.0
1440.0
1420.0
1400.0
1380.0
1370.0
1360.0
1360.0
1360.0
1360.0
1370.0
1410.0
1440.0
1500.0
1540.0
1580.0
1640.0
1680.0
1750.0
1800.0
1850.0
1930.0
2000.0
2060.0
2110.0
2140.0
2150.0
2150.0
2160.0
2170.0
2180.0
2210.0
2240.0
2260.0
2260.0
2270.0
2290.0
2280.0
2270.0
2270.0
2250.0
2260.0
2240.0
2240.0
2210.0
2210.0
2200.0
2200.0
2200.0
2190.0
2170.0
2120.0
2110.0
2070.0
2030.0
1980.0
1930.0
1860.0
1810.0
1770.0
1760.0
1750.0
1750.0
1770.0
1810.0
1870.0
1900.0
1860.0
1820.0
1780.0
1790.0
1790.0
1810.0
1820.0
1830.0
1850.0
1860.0
1900.0
1940.0
1980.0
2000.0
2010.0
2020.0
2020.0
2010.0
1980.0
1970.0
1930.0
1920.0
1890.0
1890.0
1890.0
1880.0
1920.0
1940.0
1960.0
1980.0
2000.0
2020.0
2050.0
2060.0
2100.0
2120.0
2180.0
2200.0
2240.0
2270.0
2300.0
2320.0
2330.0
2350.0
2380.0
2390.0
2420.0
2430.0
2450.0
2460.0
2470.0
2470.0
2480.0
2490.0
2500.0
2490.0
2510.0
2510.0
2510.0
2510.0
2500.0
2510.0
2480.0
2470.0
2450.0
2430.0
2430.0
2400.0
2380.0
2360.0
2330.0
2300.0
2260.0
2220.0
2170.0
2110.0
2060.0
2020.0
1950.0
1930.0
1880.0
1850.0
1810.0
1790.0
1780.0
1760.0
1730.0
1700.0
1670.0
1640.0
1620.0
1590.0
1590.0
1580.0
1560.0
1560.0
1550.0
1550.0
1560.0
1580.0
1580.0
1570.0
1570.0
1560.0
1560.0
1570.0
1570.0
1580.0
1610.0
1620.0
1640.0
1670.0
1680.0
1680.0
1690.0
1680.0
1680.0
1660.0
1640.0
1620.0
1620.0
1610.0
1580.0
1570.0
1540.0
1540.0
1530.0
1540.0
1550.0
1570.0
1570.0
1580.0
1580.0
1550.0
1500.0
1470.0
1450.0
1450.0
1470.0
1510.0
1600.0
1670.0
1760.0
1800.0
1840.0
1900.0
2010.0
2090.0
2170.0
2230.0
2260.0
2260.0
2270.0
2280.0
2270.0
2240.0
2230.0
2230.0
2230.0
2240.0
2250.0
2240.0
2220.0
2250.0
2270.0
2320.0
2340.0
2390.0
2420.0
2450.0
2450.0
2420.0
2360.0
2270.0
2210.0
2150.0
2100.0
2070.0
2030.0
2000.0
1970.0
1930.0
1920.0
1920.0
1930.0
1930.0
1940.0
1950.0
1960.0
1970.0
2000.0
2020.0
2050.0
2090.0
2120.0
2160.0
2180.0
2220.0
2220.0
2250.0
2280.0
2290.0
2320.0
2360.0
2380.0
2400.0
2430.0
2450.0
2450.0
2470.0
2480.0
2490.0
2490.0
2500.0
2510.0
2510.0
2520.0
2520.0
2510.0
2520.0
2510.0
2500.0
2490.0
2480.0
2450.0
2430.0
2420.0
2400.0
2380.0
2340.0
2310.0
2260.0
2220.0
2160.0
2120.0
2070.0
2040.0
1990.0
1960.0
1930.0
1890.0
1860.0
1810.0
1800.0
1770.0
1750.0
1720.0
1710.0
1680.0
1650.0
1640.0
1630.0
1610.0
1610.0
1600.0
1590.0
1580.0
1590.0
1580.0
1600.0
1600.0
1590.0
1610.0
1600.0
1630.0
1650.0
1680.0
1730.0
1750.0
1790.0
1830.0
1860.0
1890.0
1930.0
1950.0
2000.0
2030.0
2070.0
2080.0
2130.0
2150.0
2180.0
2220.0
2240.0
2270.0
2300.0
2300.0
2320.0
2330.0
2350.0
2380.0
2380.0
2410.0
2420.0
2410.0
2420.0
2400.0
2410.0
2390.0
2400.0
2390.0
2390.0
2390.0
2370.0
2370.0
2350.0
2340.0
2330.0
2290.0
2270.0
2250.0
2210.0
2190.0
2140.0
2120.0
2080.0
2050.0
2020.0
2000.0
1950.0
-4300
-4280
-4290
-4280
-4270
-4270
-4240
-4240
-4210
-4200
-4170
-4150
-4140
-4120
-4090
-4060
-4040
-4020
-3970
-3950
-3910
-3870
-3850
-3790
-3780
-3750
-3720
-3700
-3650
-3650
-3620
-3610
-3590
-3570
-3550
-3530
-3510
-3510
-3500
-3510
-3510
-3510
-3510
-3520
-3530
-3540
-3540
-3570
-3570
-3600
-3620
-3640
-3660
-3680
-3710
-3730
-3770
-3800
-3820
-3870
-3880
-3940
-3960
-3990
-4040
-4050
-4090
-4100
-4130
-4140
-4160
-4190
-4210
-4230
-4250
-4240
-4270
-4270
-4260
-4280
-4270
-4280
-4270
-4260
-4260
-4250
-4260
-4240
-4230
-4200
-4160
-4160
-4120
-4090
-4070
-4040
-4010
-3980
-3960
-3920
-3880
-3870
-3830
-3790
-3780
-3740
-3720
-3680
-3680
-3640
-3620
-3610
-3570
-3580
-3550
-3530
-3530
-3510
-3510
-3510
-3510
-3510
-3510
-3530
-3520
-3530
-3570
-3550
-3590
-3600
-3620
-3640
-3650
-3700
-3710
-3740
-3760
-3800
-3820
-3850
-3880
-3920
-3940
-3980
-3990
-4030
-4060
-4090
-4130
-4150
-4180
-4210
-4210
-4240
-4230
-4260
-4260
-4270
-4290
-4270
-4270
-4270
-4260
-4270
-4240
-4240
-4230
-4210
-4200
-4170
-4150
-4140
-4110
-4100
-4070
-4050
-4000
-3960
-3940
-3900
-3880
-3840
-3820
-3790
-3750
-3740
-3700
-3670
-3660
-3630
-3610
-3580
-3570
-3550
-3530
-3520
-3510
-3510
-3510
-3510
-3520
-3510
-3510
-3520
-3530
-3540
-3540
-3560
-3570
-3590
-3610
-3620
-3660
-3670
-3700
-3740
-3750
-3780
-3820
-3860
-3880
-3920
-3950
-3980
-4010
-4050
-4060
-4090
-4110
-4130
-4160
-4170
-4200
-4200
-4240
-4230
-4250
-4270
-4270
-4280
-4270
-4270
-4270
-4250
-4250
-4230
-4210
-4210
-4190
-4180
-4160
-4140
-4110
-4080
-4060
-4040
-4020
-3990
-3930
-3910
-3890
-3850
-3820
-3780
-3770
-3730
-3690
-3670
-3640
-3630
-3600
-3570
-3560
-3530
-3530
-3520
-3510
-3510
-3490
-3510
-3500
-3500
-3500
-3510
-3520
-3530
-3540
-3560
-3570
-3600
-3600
-3630
-3650
-3650
-3700
-3710
-3750
-3780
-3790
-3840
-3850
-3900
-3930
-3970
-4010
-4030
-4060
-4090
-4100
-4130
-4130
-4160
-4190
-4190
-4230
-4220
-4240
-4260
-4250
-4270
-4250
-4250
-4260
-4250
-4250
-4220
-4230
-4210
-4190
-4180
-4150
-4130
-4110
-4080
-4060
-4020
-4000
-3970
-3940
-3910
-3880
-3850
-3810
-3790
-3760
-3720
-3700
-3660
-3640
-3620
-3580
-3570
-3550
-3540
-3520
-3500
-3500
-3480
-3500
-3490
-3470
-3500
-3490
-3510
-3510
-3530
-3550
-3550
-3570
-3580
-3590
-3630
-3640
-3690
-3710
-3730
-3750
-3790
-3820
-3830
-3880
-3910
-3930
-3970
-3980
-4010
-4040
-4060
-4090
-4090
-4130
-4140
-4160
-4190
-4210
-4230
-4250
-4250
-4270
-4250
-4260
-4260
-4240
-4240
-4240
-4220
-4220
-4190
-4190
-4160
-4130
-4120
-4080
-4070
-4030
-4010
-3980
-3950
-3930
-3890
-3870
-3830
-3790
-3780
-3720
-3710
-3670
-3650
-3620
-3590
-3580
-3560
-3540
-3530
-3510
-3510
-3490
-3490
-3490
-3470
-3490
-3480
-3500
-3500
-3500
-3530
-3510
-3540
-3560
-3580
-3600
-3620
-3640
-3670
-3690
-3730
-3740
-3780
-3800
-3820
-3860
-3880
-3930
-3950
-3970
-4010
-4030
-4060
-4080
-4110
-4130
-4150
-4160
-4180
-4190
-4210
-4200
-4230
-4230
-4240
-4230
-4230
-4230
-4220
-4210
-4200
-4180
-4170
-4150
-4140
-4120
-4100
-4090
-4040
-4020
-3990
-3960
-3940
-3890
-3860
-3850
-3800
-3790
-3740
-3730
-3690
-3660
-3650
-3610
-3610
-3570
-3550
-3560
-3520
-3510
-3500
-3480
-3480
-3470
-3470
-3470
-3460
-3470
-3470
-3500
-3500
-3520
-3550
-3530
-3570
-3590
-3610
-3640
-3660
-3680
-3710
-3730
-3770
-3780
-3830
-3850
-3880
-3910
-3940
-3970
-3990
-4020
-4040
-4060
-4100
-4120
-4150
-4180
-4200
-4230
-4220
-4240
-4240
-4210
-4240
-4220
-4220
-4220
-4200
-4200
-4180
-4180
-4160
-4140
-4130
-4090
-4090
-4050
-4020
-4010
-3970
-3960
-3920
-3890
-3870
-3810
-3800
-3750
-3720
-3700
-3660
-3650
-3610
-3600
-3580
-3560
-3560
-3510
-3500
-3480
-3460
-3450
-3450
-3440
-3460
-3440
-3460
-3460
-3460
-3480
-3470
-3490
-3490
-3530
-3550
-3560
-3600
-3620
-3650
-3670
-3690
-3730
-3750
-3810
-3830
-3860
-3910
-3930
-3970
-4000
-4030
-4050
-4070
-4100
-4120
-4130
-4160
-4160
-4190
-4200
-4200
-4220
-4210
-4240
-4230
-4230
-4230
-4200
-4220
-4190
-4190
-4170
-4160
-4140
-4110
-4100
-4080
-4060
-4030
-3990
-3980
-3960
-3900
-3910
-3850
-3830
-3790
-3750
-3730
-3700
-3680
-3640
-3620
-3600
-3570
-3550
-3540
-3520
-3520
-3480
-3480
-3470
-3470
-3470
-3450
-3470
-3460
-3460
-3480
-3480
-3500
-3510
-3520
-3550
-3540
-3590
-3600
-3630
-3660
-3670
-3700
-3720
-3750
-3780
-3800
-3840
-3860
-3890
-3940
-3950
-3980
-4010
-4040
-4060
-4080
-4110
-4120
-4140
-4150
-4150
-4180
-4170
-4190
-4190
-4180
-4190
-4170
-4170
-4180
-4160
-4170
-4150
-4150
-4130
-4100
-4090
-4060
-4040
-4020
-3990
-3970
-3930
-3910
-3870
-3830
-3810
-3770
-3750
-3720
-3690
-3660
-3640
-3620
-3580
-3570
-3550
-3510
-3510
-3490
-3470
-3470
-3450
-3450
-3440
-3450
-3460
-3460
-3470
-3470
-3470
-3490
-3490
-3510
-3520
-3560
-3560
-3590
-3610
-3630
-3650
-3690
-3710
-3740
-3770
-3810
-3820
-3860
-3910
-3920
-3960
-3980
-4010
-4050
-4050
-4090
-4090
-4110
-4140
-4140
-4170
-4170
-4190
-4190
-4180
-4190
-4170
-4170
-4180
-4160
-4160
-4140
-4120
-4120
-4090
-4080
-4050
-4030
-4020
-3990
-3990
-3940
-3930
-3890
-3850
-3830
-3790
-3760
-3730
-3700
-3670
-3640
-3630
-3590
-3580
-3560
-3530
-3510
-3490
-3470
-3470
-3440
-3460
-3420
-3420
-3430
-3410
-3430
-3440
-3450
-3450
-3440
-3480
-3480
-3510
-3540
-3560
-3600
-3610
-3640
-3660
-3670
-3710
-3720
-3770
-3780
-3810
-3860
-3870
-3930
-3950
-3980
-4000
-4000
-4040
-4060
-4070
-4110
-4110
-4140
-4160
-4160
-4170
-4160
-4180
-4180
-4180
-4180
-4170
-4170
-4160
-4140
-4140
-4110
-4100
-4070
-4060
-4030
-4010
-3980
-3950
-3940
-3910
-3870
-3850
-3820
-3790
-3760
-3730
-3710
-3650
-3650
-3610
-3570
-3560
-3530
-3520
-3500
-3480
-3480
-3450
-3460
-3440
-3430
-3440
-3430
-3430
-3440
-3440
-3450
-3450
-3480
-3470
-3490
-3510
-3520
-3550
-3570
-3590
-3620
-3640
-3680
-3700
-3730
-3760
-3780
-3820
-3850
-3860
-3900
-3920
-3970
-3980
-4010
-4040
-4060
-4080
-4090
-4120
-4110
-4140
-4150
-4150
-4170
-4170
-4180
-4170
-4170
-4160
-4150
-4140
-4130
-4110
-4100
-4080
-4050
-4040
-4010
-3980
-3960
-3930
-3910
-3870
-3850
-3820
-3780
-3750
-3720
-3700
-3650
-3640
-3610
-3590
-3570
-3550
-3530
-3510
-3480
-3480
-3470
-3450
-3460
-3430
-3460
-3440
-3450
-3450
-3450
-3470
-3450
-3480
-3480
-3480
-3500
-3510
-3530
-3560
-3570
-3600
-3610
-3650
-3660
-3700
-3720
-3750
-3790
-3810
-3840
-3880
-3890
-3920
-3960
-3980
-4000
-4020
-4050
-4070
-4070
-4110
-4090
-4140
-4130
-4150
-4170
-4170
-4170
-4160
-4150
-4160
-4130
-4130
-4110
-4100
-4110
-4060
-4050
-4020
-4010
-3980
-3960
-3950
-3900
-3890
-3860
-3820
-3810
-3760
-3750
-3710
-3670
-3660
-3630
-3600
-3580
-3550
-3540
-3510
-3490
-3480
-3460
-3450
-3430
-3430
-3430
-3420
-3430
-3410
-3430
-3430
-3430
-3430
-3450
-3480
-3470
-3490
-3510
-3510
-3550
-3570
-3590
-3640
-3660
-3700
-3740
-3760
-3790
-3810
-3860
-3880
-3900
-3950
-3940
-3990
-4000
-4020
-4050
-4060
-4080
-4090
-4100
-4120
-4110
-4130
-4130
-4130
-4150
-4120
-4130
-4120
-4140
-4130
-4110
-4100
-4080
-4080
-4050
-4020
-4010
-3960
-3970
-3930
-3890
-3870
-3830
-3820
-3770
-3760
-3720
-3690
-3680
-3630
-3610
-3580
-3540
-3540
-3520
-3500
-3490
-3460
-3460
-3430
-3430
-3430
-3420
-3430
-3400
-3420
-3410
-3410
-3420
-3430
-3440
-3470
-3480
-3500
-3510
-3540
-3550
-3570
-3600
-3620
-3660
-3690
-3710
-3750
-3770
-3810
-3840
-3870
-3900
-3910
-3960
-3970
-3980
-4020
-4020
-4050
-4060
-4070
-4100
-4110
-4130
-4130
-4150
-4150
-4140
-4150
-4130
-4130
-4130
-4110
-4090
-4070
-4070
-4040
-4020
-4010
-3970
-3960
-3930
-3910
-3890
-3850
-3840
-3790
-3770
-3730
-3700
-3670
-3640
-3610
-3600
-3550
-3560
-3530
-3510
-3500
-3470
-3450
-3440
-3420
-3420
-3400
-3420
-3400
-3410
-3400
-3400
-3410
-3410
-3430
-3450
-3450
-3470
-3480
-3510
-3520
-3560
-3590
-3610
-3660
-3670
-3700
-3740
-3750
-3790
-3810
-3840
-3880
-3890
-3930
-3950
-3970
-4010
-4010
-4050
-4050
-4070
-4090
-4090
-4120
-4120
-4130
-4140
-4140
-4130
-4130
-4120
-4110
-4110
-4110
-4090
-4080
-4080
-4050
-4050
-4000
-3980
-3970
-3930
-3920
-3880
-3860
-3830
-3800
-3760
-3730
-3700
-3670
-3640
-3620
-3580
-3560
-3540
-3510
-3500
-3470
-3470
-3450
-3430
-3430
-3410
-3420
-3410
-3390
-3400
-3390
-3410
-3410
-3420
-3440
-3440
-3450
-3460
-3480
-3500
-3510
-3540
-3570
-3580
-3630
-3640
-3680
-3700
-3720
-3760
-3780
-3830
-3840
-3880
-3900
-3920
-3960
-3970
-3990
-4020
-4030
-4060
-4060
-4080
-4090
-4100
-4110
-4100
-4120
-4110
-4110
-4110
-4090
-4100
-4090
-4060
-4060
-4040
-4040
-4010
-3990
-3980
-3930
-3930
-3880
-3870
-3840
-3800
-3790
-3750
-3720
-3710
-3670
-3640
-3610
-3580
-3560
-3520
-3510
-3470
-3470
-3450
-3420
-3420
-3400
-3400
-3380
-3380
-3390
-3370
-3380
-3400
-3400
-3430
-3420
-3440
-3450
-3460
-3480
-3500
-3530
-3550
-3570
-3610
-3620
-3660
-3680
-3700
-3750
-3760
-3800
-3820
-3850
-3880
-3900
-3930
-3970
-3990
-4010
-4020
-4040
-4060
-4080
-4100
-4110
-4110
-4110
-4110
-4120
-4110
-4120
-4100
-4100
-4090
-4070
-4060
-4050
-4040
-4020
-4020
-4010
-3990
-3960
-3950
-3910
-3890
-3840
-3830
-3790
-3760
-3740
-3690
-3680
-3640
-3610
-3590
-3550
-3530
-3510
-3500
-3480
-3450
-3460
-3430
-3430
-3420
-3400
-3410
-3400
-3400
-3410
-3400
-3420
-3420
-3430
-3450
-3460
-3480
-3480
-3520
-3520
-3550
-3580
-3580
-3620
-3640
-3680
-3710
-3720
-3770
-3800
-3820
-3860
-3880
-3900
-3930
-3960
-3970
-3990
-4020
-4020
-4040
-4060
-4060
-4090
-4090
-4090
-4110
-4090
-4110
-4100
-4090
-4090
-4060
-4090
-4060
-4060
-4050
-4030
-4020
-3990
-3970
-3950
-3900
-3890
-3850
-3820
-3790
-3740
-3730
-3690
-3660
-3630
-3610
-3570
-3550
-3540
-3510
-3490
-3480
-3450
-3440
-3420
-3420
-3410
-3380
-3400
-3380
-3380
-3380
-3380
-3390
-3400
-3410
-3430
-3430
-3460
-3480
-3500
-3510
-3510
-3550
-3560
-3580
-3620
-3630
-3660
-3680
-3710
-3750
-3770
-3820
-3830
-3860
-3880
-3910
-3930
-3960
-3980
-4000
-4020
-4040
-4050
-4070
-4080
-4080
-4100
-4080
-4100
-4100
-4090
-4100
-4070
-4080
-4070
-4050
-4040
-4030
-4010
-4000
-3970
-3960
-3920
-3910
-3870
-3840
-3820
-3770
-3760
-3730
-3690
-3660
-3630
-3600
-3560
-3540
-3530
-3500
-3500
-3460
-3460
-3440
-3410
-3410
-3390
-3380
-3390
-3370
-3380
-3370
-3370
-3370
-3370
-3400
-3400
-3420
-3430
-3440
-3470
-3470
-3510
-3510
-3550
-3570
-3580
-3620
-3640
-3670
-3690
-3720
-3760
-3780
-3820
-3850
-3870
-3900
-3920
-3950
-3960
-3980
-4010
-4030
-4040
-4070
-4080
-4080
-4080
-4070
-4090
-4070
-4080
-4080
-4060
-4060
-4040
-4050
-4030
-4020
-4000
-3970
-3960
-3930
-3910
-3890
-3850
-3840
-3790
-3780
-3750
-3710
-3690
-3640
-3610
-3590
-3550
-3530
-3500
-3480
-3460
-3440
-3430
-3410
-3400
-3380
-3370
-3370
-3350
-3360
-3360
-3350
-3360
-3360
-3370
-3380
-3390
-3420
-3410
-3430
-3450
-3470
-3510
-3520
-3560
-3580
-3610
-3650
-3660
-3700
-3720
-3750
-3770
-3810
-3830
-3840
-3890
-3910
-3920
-3950
-3960
-3980
-4010
-4020
-4050
-4050
-4090
-4090
-4080
-4100
-4080
-4080
-4090
-4060
-4080
-4050
-4060
-4030
-4020
-4000
-3980
-3970
-3940
-3930
-3890
-3860
-3850
-3810
-3790
-3770
-3750
-3720
-3680
-3640
-3630
-3580
-3580
-3530
-3520
-3510
-3480
-3470
-3450
-3440
-3420
-3400
-3390
-3380
-3380
-3380
-3360
-3380
-3360
-3380
-3380
-3390
-3410
-3410
-3430
-3440
-3450
-3470
-3480
-3510
-3530
-3560
-3600
-3600
-3650
-3660
-3690
-3720
-3730
-3780
-3800
-3830
-3870
-3900
-3940
-3960
-3970
-4000
-3990
-4020
-4020
-4030
-4040
-4040
-4060
-4060
-4060
-4070
-4060
-4060
-4050
-4040
-4050
-4030
-4030
-3990
-3980
-3960
-3930
-3920
-3880
-3860
-3840
-3800
-3790
-3740
-3720
-3700
-3650
-3640
-3600
-3580
-3550
-3530
-3520
-3490
-3470
-3460
-3430
-3430
-3410
-3400
-3390
-3380
-3380
-3360
-3370
-3360
-3370
-3370
-3380
-3400
-3390
-3410
-3430
-3450
-3470
-3480
-3500
-3530
-3540
-3570
-3590
-3620
-3650
-3660
-3700
-3720
-3760
-3800
-3810
-3850
-3860
-3900
-3910
-3930
-3960
-3960
-4000
-4000
-4020
-4030
-4040
-4060
-4050
-4050
-4060
-4050
-4060
-4040
-4040
-4040
-4000
-4010
-3980
-3970
-3970
-3930
-3930
-3900
-3860
-3850
-3810
-3810
-3770
-3740
-3730
-3680
-3670
-3630
-3600
-3580
-3540
-3530
-3500
-3470
-3450
-3440
-3430
-3400
-3380
-3380
-3360
-3360
-3350
-3360
-3360
-3360
-3370
-3370
-3380
-3390
-3390
-3410
-3410
-3430
-3450
-3450
-3480
-3500
-3520
-3560
-3570
-3600
-3620
-3660
-3680
-3710
-3730
-3750
-3800
-3810
-3840
-3860
-3890
-3920
-3930
-3950
-3970
-3990
-4010
-4010
-4030
-4050
-4040
-4070
-4060
-4080
-4070
-4060
-4060
-4040
-4040
-4010
-3990
-3980
-3950
-3940
-3910
-3890
-3870
-3840
-3820
-3800
-3760
-3750
-3700
-3700
-3650
-3610
-3600
-3560
-3540
-3510
-3490
-3480
-3440
-3450
-3420
-3400
-3410
-3370
-3380
-3360
-3360
-3360
-3350
-3350
-3360
-3370
-3380
-3370
-3400
-3400
-3420
-3440
-3440
-3480
-3490
-3510
-3540
-3540
-3580
-3600
-3620
-3650
-3670
-3720
-3720
-3770
-3790
-3820
-3840
-3860
-3890
-3910
-3940
-3980
-4000
-4020
-4030
-4030
-4050
-4040
-4050
-4050
-4040
-4040
-4030
-4030
-4030
-4020
-4010
-3990
-3980
-3950
-3930
-3930
-3890
-3890
-3850
-3820
-3810
-3770
-3760
-3710
-3690
-3670
-3620
-3620
-3570
-3550
-3530
-3500
-3500
-3450
-3440
-3430
-3400
-3400
-3370
-3360
-3350
-3350
-3360
-3350
-3360
-3350
-3370
-3360
-3360
-3380
-3390
-3400
-3430
-3430
-3460
-3470
-3500
-3520
-3540
-3570
-3590
-3610
-3650
-3660
-3700
-3720
-3750
-3790
-3800
-3830
-3860
-3870
-3900
-3930
-3940
-3960
-3970
-3990
-3990
-4020
-4010
-4030
-4020
-4030
-4030
-4030
-4020
-4020
-4010
-4010
-3980
-3990
-3960
-3950
-3930
-3900
-3890
-3870
-3840
-3820
-3780
-3780
-3750
-3710
-3690
-3650
-3620
-3590
-3570
-3540
-3510
-3490
-3470
-3440
-3430
-3410
-3400
-3390
-3370
-3370
-3350
-3350
-3340
-3350
-3340
-3350
-3350
-3350
-3360
-3380
-3390
-3390
-3400
-3420
-3430
-3450
-3490
-3500
-3540
-3560
-3590
-3610
-3620
-3670
-3690
-3720
-3750
-3770
-3820
-3830
-3860
-3880
-3900
-3910
-3940
-3950
-3970
-3980
-4000
-4000
-4020
-4030
-4010
-4030
-4020
-4020
-4030
-4000
-4020
-3990
-3980
-3980
-3940
-3940
-3920
-3900
-3890
-3850
-3850
-3820
-3790
-3770
-3730
-3720
-3670
-3650
-3630
-3590
-3560
-3530
-3510
-3490
-3470
-3460
-3430
-3430
-3410
-3390
-3370
-3360
-3350
-3330
-3330
-3330
-3330
-3330
-3330
-3330
-3360
-3350
-3380
-3380
-3390
-3430
-3430
-3460
-3500
-3500
-3540
-3540
-3580
-3580
-3620
-3650
-3670
-3710
-3720
-3750
-3780
-3810
-3840
-3860
-3880
-3910
-3910
-3940
-3950
-3970
-3990
-4000
-4010
-4020
-4030
-4030
-4030
-4040
-4020
-4030
-4020
-4000
-3990
-3970
-3960
-3940
-3910
-3900
-3860
-3860
-3820
-3790
-3780
-3740
-3730
-3690
-3670
-3660
-3610
-3600
-3560
-3530
-3510
-3480
-3460
-3440
-3420
-3410
-3380
-3380
-3350
-3340
-3340
-3320
-3340
-3320
-3340
-3340
-3340
-3350
-3340
-3360
-3360
-3380
-3400
-3410
-3440
-3460
-3490
-3500
-3510
-3550
-3550
-3590
-3630
-3640
-3680
-3690
-3720
-3760
-3780
-3820
-3850
-3860
-3880
-3890
-3930
-3930
-3940
-3980
-3960
-4000
-4000
-4010
-4020
-4010
-4020
-4010
-4000
-4010
-3990
-3980
-3960
-3950
-3940
-3910
-3900
-3870
-3850
-3830
-3800
-3790
-3750
-3730
-3700
-3690
-3660
-3630
-3610
-3580
-3550
-3530
-3510
-3490
-3480
-3430
-3420
-3400
-3390
-3360
-3360
-3350
-3320
-3340
-3330
-3320
-3330
-3310
-3330
-3320
-3350
-3360
-3370
-3390
-3400
-3430
-3440
-3450
-3470
-3480
-3520
-3540
-3560
-3590
-3600
-3640
-3660
-3680
-3730
-3750
-3780
-3810
-3810
-3840
-3860
-3880
-3900
-3920
-3930
-3930
-3960
-3960
-3970
-4000
-4000
-4010
-4020
-4010
-4000
-3990
-3980
-3970
-3940
-3950
-3920
-3900
-3890
-3870
-3840
-3810
-3800
-3760
-3730
-3720
-3680
-3670
-3640
-3620
-3610
-3570
-3560
-3520
-3500
-3480
-3450
-3430
-3410
-3390
-3380
-3360
-3350
-3330
-3330
-3330
-3330
-3330
-3320
-3330
-3340
-3340
-3350
-3340
-3360
-3380
-3400
-3410
-3420
-3460
-3470
-3490
-3520
-3540
-3560
-3590
-3610
-3660
-3670
-3700
-3730
-3740
-3790
-3800
-3830
-3840
-3860
-3890
-3890
-3920
-3920
-3950
-3960
-3960
-3980
-3970
-3980
-3980
-3980
-3980
-3970
-3960
-3950
-3940
-3950
-3910
-3910
-3900
-3870
-3860
-3830
-3810
-3780
-3760
-3760
-3700
-3690
-3670
-3630
-3610
-3580
-3560
-3530
-3500
-3480
-3450
-3440
-3400
-3390
-3370
-3360
-3350
-3330
-3320
-3320
-3310
-3330
-3310
-3330
-3330
-3340
-3340
-3350
-3360
-3380
-3370
-3390
-3400
-3410
-3440
-3450
-3480
-3490
-3530
-3550
-3570
-3600
-3610
-3660
-3670
-3690
-3730
-3750
-3790
-3820
-3840
-3880
-3880
-3920
-3930
-3940
-3960
-3960
-3980
-3980
-3980
-3990
-3970
-3990
-3980
-3970
-3970
-3940
-3940
-3930
-3920
-3920
-3890
-3890
-3860
-3840
-3820
-3790
-3770
-3740
-3710
-3680
-3650
-3620
-3580
-3560
-3530
-3510
-3500
-3470
-3460
-3440
-3410
-3400
-3390
-3370
-3350
-3320
-3320
-3300
-3300
-3290
-3290
-3300
-3290
-3320
-3320
-3350
-3360
-3360
-3380
-3400
-3400
-3430
-3440
-3470
-3470
-3500
-3530
-3540
-3580
-3600
-3630
-3660
-3660
-3710
-3720
-3750
-3790
-3800
-3840
-3850
-3880
-3900
-3900
-3930
-3940
-3950
-3970
-3960
-3980
-3970
-3970
-3970
-3960
-3960
-3950
-3950
-3950
-3920
-3920
-3890
-3880
-3870
-3850
-3840
-3800
-3790
-3760
-3720
-3710
-3670
-3660
-3620
-3600
-3580
-3530
-3520
-3500
-3460
-3450
-3420
-3420
-3380
-3370
-3370
-3340
-3340
-3320
-3320
-3310
-3290
-3310
-3300
-3310
-3320
-3310
-3340
-3320
-3350
-3350
-3370
-3390
-3400
-3430
-3450
-3470
-3500
-3520
-3540
-3580
-3600
-3630
-3650
-3690
-3710
-3740
-3770
-3770
-3820
-3830
-3850
-3880
-3870
-3910
-3910
-3930
-3960
-3950
-3960
-3960
-3960
-3960
-3960
-3970
-3940
-3940
-3940
-3930
-3910
-3900
-3890
-3870
-3840
-3840
-3810
-3800
-3770
-3750
-3740
-3710
-3680
-3660
-3630
-3600
-3560
-3550
-3520
-3500
-3480
-3440
-3430
-3400
-3380
-3370
-3350
-3350
-3320
-3320
-3330
-3300
-3310
-3310
-3300
-3310
-3300
-3330
-3330
-3330
-3360
-3360
-3380
-3390
-3410
-3440
-3450
-3490
-3490
-3530
-3550
-3570
-3600
-3630
-3650
-3680
-3700
-3730
-3760
-3780
-3820
-3830
-3870
-3870
-3900
-3900
-3910
-3940
-3930
-3960
-3950
-3950
-3970
-3970
-3980
-3980
-3970
-3980
-3970
-3960
-3940
-3920
-3920
-3890
-3880
-3850
-3830
-3820
-3770
-3760
-3730
-3720
-3690
-3650
-3630
-3590
-3570
-3540
-3500
-3490
-3460
-3440
-3420
-3400
-3400
-3370
-3360
-3350
-3330
-3330
-3310
-3300
-3310
-3300
-3300
-3300
-3300
-3310
-3310
-3330
-3330
-3350
-3370
-3380
-3410
-3420
-3450
-3470
-3490
-3530
-3540
-3560
-3590
-3620
-3660
-3680
-3710
-3750
-3770
-3810
-3830
-3850
-3870
-3900
-3910
-3920
-3940
-3960
-3960
-3980
-3980
-3990
-3980
-3980
-3990
-3980
-3990
-3970
-3990
-3970
-3950
-3950
-3910
-3910
-3880
-3870
-3840
-3810
-3790
-3770
-3730
-3720
-3680
-3660
-3630
-3610
-3570
-3540
-3510
-3490
-3460
-3450
-3420
-3420
-3410
-3390
-3380
-3350
-3350
-3330
-3310
-3320
-3300
-3320
-3310
-3300
-3330
-3310
-3350
-3340
-3350
-3360
-3370
-3400
-3410
-3430
-3460
-3480
-3510
-3520
-3550
-3570
-3590
-3630
-3650
-3680
-3720
-3730
-3770
-3790
-3820
-3840
-3850
-3890
-3900
-3930
-3940
-3950
-3950
-3960
-3970
-3970
-3970
-3970
-3970
-3970
-3960
-3960
-3950
-3930
-3930
-3910
-3910
-3900
-3880
-3860
-3830
-3820
-3800
-3750
-3740
-3710
-3680
-3650
-3620
-3590
-3550
-3530
-3510
-3470
-3470
-3440
-3430
-3400
-3370
-3380
-3340
-3340
-3330
-3310
-3330
-3310
-3310
-3310
-3310
-3320
-3310
-3330
-3330
-3340
-3360
-3370
-3400
-3410
-3420
-3450
-3440
-3480
-3490
-3520
-3550
-3560
-3590
-3610
-3650
-3690
-3710
-3760
-3790
-3810
-3840
-3840
-3870
-3880
-3890
-3920
-3920
-3940
-3950
-3960
-3970
-3970
-3980
-3980
-3960
-3980
-3960
-3980
-3940
-3950
-3940
-3930
-3920
-3880
-3880
-3850
-3820
-3810
-3780
-3760
-3730
-3710
-3690
-3660
-3640
-3600
-3570
-3560
-3520
-3510
-3470
-3450
-3450
-3410
-3400
-3380
-3350
-3350
-3320
-3320
-3320
-3310
-3310
-3310
-3320
-3320
-3320
-3330
-3320
-3350
-3340
-3370
-3380
-3390
-3420
-3430
-3450
-3480
-3490
-3540
-3550
-3570
-3610
-3630
-3670
-3680
-3710
-3730
-3770
-3800
-3810
-3840
-3870
-3880
-3910
-3910
-3930
-3930
-3950
-3960
-3960
-3980
-3970
-3990
-3990
-3980
-3980
-3960
-3960
-3950
-3920
-3930
-3900
-3880
-3870
-3840
-3840
-3800
-3790
-3770
-3720
-3720
-3680
-3660
-3630
-3600
-3580
-3540
-3520
-3500
-3460
-3450
-3410
-3410
-3390
-3360
-3360
-3320
-3330
-3310
-3300
-3300
-3280
-3300
-3290
-3290
-3310
-3290
-3310
-3310
-3320
-3350
-3360
-3390
-3420
-3430
-3460
-3470
-3500
-3530
-3550
-3580
-3610
-3650
-3670
-3700
-3730
-3740
-3790
-3800
-3820
-3830
-3860
-3880
-3890
-3920
-3930
-3930
-3960
-3950
-3970
-3980
-3980
-4000
-3990
-3980
-3980
-3960
-3960
-3940
-3930
-3920
-3890
-3880
-3850
-3850
-3820
-3800
-3790
-3750
-3730
-3710
-3670
-3660
-3610
-3590
-3560
-3530
-3520
-3470
-3470
-3430
-3420
-3410
-3390
-3390
-3350
-3340
-3340
-3310
-3320
-3300
-3300
-3290
-3290
-3300
-3290
-3310
-3330
-3340
-3370
-3370
-3400
-3420
-3420
-3450
-3460
-3490
-3510
-3530
-3560
-3580
-3620
-3640
-3660
-3700
-3720
-3750
-3760
-3800
-3820
-3830
-3870
-3880
-3890
-3920
-3930
-3960
-3960
-3970
-3980
-3970
-3990
-3980
-3980
-3980
-3960
-3970
-3940
-3930
-3920
-3900
-3910
-3880
-3870
-3860
-3840
-3820
-3790
-3760
-3740
-3700
-3690
-3660
-3620
-3600
-3560
-3540
-3500
-3480
-3450
-3440
-3430
-3400
-3380
-3370
-3340
-3340
-3310
-3320
-3300
-3290
-3300
-3280
-3300
-3290
-3310
-3320
-3320
-3340
-3340
-3350
-3380
-3370
-3400
-3420
-3450
-3470
-3500
-3530
-3550
-3570
-3610
-3630
-3670
-3690
-3720
-3760
-3770
-3800
-3830
-3850
-3870
-3880
-3910
-3910
-3930
-3950
-3950
-3980
-3970
-3980
-3990
-3980
-3990
-3980
-3990
-3980
-3960
-3970
-3930
-3950
-3910
-3890
-3870
-3840
-3830
-3810
-3770
-3760
-3720
-3710
-3680
-3650
-3630
-3590
-3570
-3540
-3510
-3500
-3470
-3450
-3430
-3410
-3390
-3370
-3360
-3330
-3330
-3330
-3310
-3310
-3300
-3300
-3300
-3300
-3320
-3310
-3330
-3330
-3330
-3360
-3370
-3380
-3420
-3430
-3460
-3460
-3510
-3520
-3550
-3590
-3590
-3640
-3660
-3700
-3720
-3750
-3780
-3800
-3820
-3860
-3860
-3900
-3910
-3920
-3940
-3960
-3970
-3980
-3990
-4000
-3980
-3990
-3970
-3960
-3980
-3940
-3960
-3940
-3950
-3930
-3900
-3890
-3860
-3840
-3830
-3800
-3790
-3770
-3760
-3730
-3690
-3650
-3630
-3590
-3560
-3540
-3510
-3480
-3470
-3450
-3420
-3410
-3390
-3370
-3350
-3330
-3330
-3310
-3310
-3310
-3290
-3310
-3290
-3320
-3310
-3320
-3320
-3330
-3350
-3350
-3370
-3400
-3410
-3440
-3460
-3480
-3520
-3530
-3570
-3580
-3610
-3650
-3660
-3710
-3720
-3750
-3800
-3810
-3850
-3860
-3880
-3900
-3910
-3940
-3940
-3960
-3970
-3970
-3990
-3980
-4000
-4000
-3990
-3990
-3970
-3970
-3970
-3950
-3940
-3920
-3910
-3890
-3860
-3850
-3830
-3800
-3790
-3750
-3740
-3700
-3690
-3640
-3620
-3590
-3550
-3530
-3480
-3470
-3450
-3410
-3410
-3380
-3370
-3370
-3330
-3330
-3320
-3300
-3320
-3310
-3330
-3320
-3330
-3360
-3330
-3360
-3350
-3360
-3380
-3370
-3400
-3400
-3430
-3450
-3460
-3500
-3500
-3540
-3570
-3580
-3620
-3640
-3680
-3710
-3730
-3770
-3780
-3820
-3840
-3850
-3890
-3900
-3920
-3930
-3940
-3950
-3960
-3990
-3990
-3990
-4010
-4000
-4000
-3990
-3990
-3990
-3970
-3970
-3950
-3930
-3920
-3890
-3880
-3850
-3830
-3820
-3780
-3760
-3730
-3710
-3680
-3640
-3630
-3580
-3560
-3530
-3490
-3490
-3440
-3440
-3410
-3390
-3380
-3360
-3360
-3340
-3330
-3330
-3310
-3320
-3310
-3310
-3320
-3300
-3330
-3320
-3320
-3340
-3330
-3370
-3380
-3380
-3410
-3420
-3460
-3470
-3500
-3530
-3540
-3580
-3600
-3640
-3680
-3710
-3760
-3770
-3800
-3830
-3840
-3870
-3880
-3910
-3920
-3950
-3960
-3970
-3980
-3990
-3990
-4010
-4010
-4010
-4010
-3990
-4000
-3980
-3980
-3990
-3960
-3960
-3930
-3920
-3900
-3870
-3860
-3830
-3800
-3780
-3760
-3730
-3700
-3680
-3650
-3620
-3590
-3560
-3540
-3490
-3480
-3470
-3430
-3430
-3410
-3380
-3380
-3360
-3350
-3340
-3330
-3320
-3320
-3330
-3320
-3330
-3330
-3330
-3350
-3360
-3380
-3400
-3400
-3430
-3440
-3460
-3490
-3510
-3550
-3560
-3590
-3620
-3640
-3660
-3690
-3730
-3760
-3780
-3820
-3830
-3870
-3890
-3900
-3940
-3930
-3960
-3970
-3990
-4000
-4010
-4020
-4030
-4030
-4040
-4020
-4010
-4020
-3990
-3990
-3970
-3980
-3950
-3940
-3920
-3910
-3900
-3860
-3850
-3820
-3790
-3780
-3730
-3700
-3670
-3640
-3630
-3590
-3570
-3540
-3510
-3500
-3460
-3450
-3440
-3410
-3410
-3370
-3370
-3360
-3340
-3350
-3330
-3330
-3330
-3330
-3340
-3330
-3350
-3350
-3360
-3370
-3380
-3400
-3420
-3430
-3460
-3470
-3510
-3520
-3560
-3570
-3600
-3640
-3660
-3700
-3720
-3760
-3790
-3810
-3830
-3860
-3880
-3910
-3910
-3940
-3960
-3970
-3990
-4000
-4000
-4020
-4010
-4030
-4020
-4020
-4020
-4000
-4020
-4000
-3980
-3980
-3960
-3950
-3920
-3900
-3890
-3860
-3850
-3810
-3800
-3770
-3730
-3710
-3660
-3640
-3610
-3580
-3560
-3530
-3520
-3490
-3460
-3460
-3410
-3420
-3380
-3360
-3350
-3330
-3340
-3310
-3310
-3320
-3310
-3320
-3320
-3330
-3330
-3330
-3360
-3350
-3380
-3390
-3410
-3440
-3450
-3490
-3500
-3520
-3550
-3560
-3600
-3620
-3650
-3700
-3710
-3750
-3770
-3790
-3830
-3860
-3900
-3920
-3940
-3960
-3960
-4000
-3980
-4000
-4020
-4020
-4020
-4030
-4030
-4040
-4010
-4030
-4000
-4000
-3990
-3980
-3970
-3950
-3930
-3920
-3880
-3870
-3840
-3820
-3790
-3770
-3730
-3700
-3670
-3650
-3610
-3590
-3550
-3530
-3520
-3480
-3460
-3430
-3420
-3400
-3380
-3380
-3350
-3350
-3330
-3330
-3320
-3310
-3320
-3310
-3330
-3340
-3340
-3360
-3360
-3370
-3390
-3390
-3410
-3430
-3460
-3490
-3500
-3530
-3550
-3580
-3610
-3630
-3690
-3690
-3730
-3760
-3790
-3830
-3840
-3870
-3890
-3910
-3940
-3940
-3970
-3980
-3990
-4010
-4010
-4020
-4030
-4030
-4040
-4040
-4030
-4030
-4010
-4010
-3990
-3980
-3970
-3950
-3940
-3910
-3900
-3870
-3850
-3830
-3800
-3780
-3760
-3710
-3690
-3650
-3630
-3600
-3570
-3550
-3510
-3500
-3470
-3460
-3430
-3400
-3400
-3380
-3360
-3360
-3340
-3350
-3330
-3330
-3340
-3330
-3360
-3340
-3360
-3360
-3370
-3380
-3400
-3410
-3440
-3430
-3480
-3490
-3510
-3550
-3560
-3610
-3620
-3660
-3690
-3710
-3740
-3770
-3810
-3830
-3850
-3880
-3890
-3930
-3950
-3950
-3990
-3990
-4020
-4010
-4030
-4040
-4040
-4040
-4040
-4040
-4040
-4030
-4040
-4010
-4010
-4000
-3970
-3970
-3940
-3920
-3910
-3880
-3860
-3830
-3820
-3790
-3760
-3730
-3690
-3670
-3640
-3610
-3590
-3550
-3530
-3510
-3480
-3460
-3440
-3430
-3420
-3400
-3400
-3360
-3380
-3350
-3340
-3350
-3330
-3350
-3350
-3360
-3360
-3380
-3390
-3390
-3410
-3430
-3440
-3480
-3490
-3520
-3540
-3560
-3590
-3610
-3650
-3670
-3700
-3750
-3770
-3800
-3820
-3840
-3870
-3880
-3920
-3930
-3950
-3980
-3970
-4000
-4010
-4030
-4050
-4050
-4070
-4080
-4080
-4090
-4080
-4080
-4060
-4040
-4040
-4010
-4010
-4000
-3970
-3950
-3930
-3910
-3890
-3850
-3830
-3800
-3780
-3750
-3710
-3690
-3660
-3630
-3600
-3580
-3550
-3520
-3510
-3480
-3460
-3450
-3420
-3420
-3390
-3390
-3380
-3360
-3370
-3350
-3360
-3360
-3350
-3370
-3380
-3400
-3400
-3410
-3430
-3440
-3460
-3480
-3500
-3540
-3540
-3580
-3600
-3620
-3660
-3680
-3720
-3730
-3770
-3810
-3820
-3860
-3880
-3910
-3940
-3950
-3980
-3990
-4000
-4020
-4030
-4060
-4060
-4080
-4090
-4080
-4090
-4080
-4080
-4080
-4060
-4060
-4030
-4040
-4020
-4010
-4000
-3970
-3950
-3940
-3910
-3880
-3850
-3830
-3800
-3760
-3750
-3700
-3690
-3650
-3610
-3590
-3550
-3540
-3510
-3490
-3470
-3450
-3450
-3420
-3430
-3410
-3410
-3400
-3390
-3390
-3390
-3390
-3400
-3400
-3400
-3420
-3420
-3450
-3430
-3460
-3480
-3490
-3530
-3530
-3580
-3600
-3620
-3650
-3670
-3710
-3740
-3770
-3800
-3830
-3860
-3890
-3910
-3940
-3960
-3980
-4000
-4020
-4050
-4040
-4080
-4090
-4090
-4110
-4100
-4110
-4100
-4100
-4110
-4090
-4110
-4090
-4080
-4080
-4040
-4030
-4010
-3980
-3980
-3940
-3930
-3890
-3870
-3840
-3810
-3780
-3750
-3720
-3690
-3650
-3640
-3600
-3590
-3580
-3550
-3550
-3520
-3500
-3480
-3460
-3450
-3430
-3430
-3400
-3410
-3400
-3380
-3410
-3390
-3410
-3420
-3420
-3440
-3440
-3460
-3480
-3490
-3530
-3530
-3560
-3580
-3600
-3640
-3660
-3690
-3720
-3740
-3780
-3800
-3830
-3880
-3900
-3940
-3960
-3990
-4010
-4020
-4060
-4070
-4100
-4100
-4120
-4140
-4140
-4160
-4160
-4160
-4160
-4140
-4150
-4140
-4120
-4110
-4090
-4080
-4060
-4050
-4030
-3990
-3990
-3950
-3920
-3910
-3870
-3840
-3820
-3780
-3770
-3730
-3710
-3670
-3650
-3610
-3580
-3580
-3540
-3530
-3510
-3490
-3490
-3460
-3460
-3460
-3430
-3440
-3420
-3430
-3430
-3440
-3440
-3450
-3460
-3480
-3490
-3510
-3510
-3540
-3560
-3580
-3610
-3630
-3660
-3680
-3710
-3740
-3760
-3800
-3830
-3850
-3900
-3910
-3940
-3970
-3990
-4020
-4030
-4060
-4080
-4090
-4120
-4130
-4140
-4160
-4150
-4170
-4160
-4180
-4160
-4150
-4150
-4130
-4150
-4130
-4120
-4110
-4090
-4070
-4050
-4020
-4010
-3970
-3950
-3920
-3900
-3880
-3840
-3830
-3770
-3760
-3720
-3700
-3680
-3640
-3620
-3590
-3570
-3570
-3530
-3530
-3510
-3480
-3490
-3470
-3480
-3460
-3450
-3460
-3450
-3470
-3470
-3480
-3500
-3500
-3540
-3540
-3550
-3580
-3580
-3620
-3640
-3660
-3690
-3710
-3750
-3760
-3800
-3830
-3850
-3900
-3920
-3960
-3980
-4000
-4040
-4050
-4080
-4110
-4110
-4130
-4150
-4160
-4180
-4180
-4190
-4180
-4190
-4200
-4190
-4190
-4180
-4180
-4170
-4160
-4150
-4130
-4130
-4090
-4080
-4070
-4020
-4010
-3980
-3960
-3940
-3900
-3880
-3830
-3820
-3790
-3740
-3730
-3690
-3660
-3650
-3610
-3610
-3560
-3560
-3540
-3520
-3520
-3510
-3520
-3510
-3500
-3510
-3490
-3500
-3500
-3490
-3520
-3520
-3540
-3540
-3570
-3590
-3600
-3640
-3640
-3670
-3710
-3720
-3770
-3790
-3810
-3840
-3870
-3900
-3940
-3960
-3990
-4010
-4040
-4060
-4090
-4120
-4130
-4160
-4160
-4190
-4200
-4220
-4240
-4230
-4250
-4240
-4240
-4240
-4220
-4230
-4210
-4210
-4200
-4180
-4170
-4150
-4130
-4120
-4090
-4060
-4050
-4020
-3990
-3960
-3940
-3910
-3870
-3850
-3810
-3780
-3760
-3730
-3710
-3680
-3660
-3640
-3610
-3600
-3590
-3580
-3560
-3540
-3540
-3530
-3520
-3520
-3530
-3520
-3530
-3540
-3560
-3560
-3590
-3590
-3630
-3630
-3650
-3670
-3680
-3720
-3740
-3770
-3800
-3820
-3860
-3880
-3910
-3950
-3970
-4010
-4030
-4060
-4080
-4100
-4150
-4140
-4170
-4190
-4200
-4230
-4240
-4260
-4270
-4270
-4290
-4280
-4270
-4270
-4260
-4260
-4240
-4250
-4230
-4210
-4210
-4170
-4190
-4150
-4130
-4110
-4070
-4060
-4010
-4000
-3970
-3930
-3920
-3880
-3850
-3830
-3800
-3780
-3750
-3730
-3700
-3680
-3670
-3630
-3630
-3620
-3590
-3590
-3570
-3570
-3570
-3560
-3580
-3570
-3580
-3590
-3590
-3610
-3620
-3630
-3660
-3660
-3690
-3720
-3730
-3770
-3780
-3820
-3840
-3860
-3890
-3920
-3950
-3980
-4010
-4050
-4070
-4100
-4120
-4150
-4170
-4190
-4210
-4230
-4260
-4260
-4270
-4300
-4300
-4310
-4310
-4310
-4320
-4300
-4310
-4300
-4290
-4300
-4270
-4270
-4240
-4230
-4220
-4180
-4180
-4150
-4120
-4100
-4060
-4030
-4010
-3980
-3950
-3920
-3890
-3860
-3830
-3810
-3780
-3760
-3740
-3730
-3680
-3680
-3670
-3640
-3650
-3630
-3610
-3620
-3600
-3620
-3610
-3610
-3630
-3620
-3630
-3660
-3660
-3680
-3690
-3710
-3710
-3740
-3760
-3780
-3820
-3830
-3860
-3880
-3920
-3960
-3980
-4030
-4070
-4100
-4140
-4150
-4180
-4200
-4220
-4250
-4260
-4290
-4300
-4310
-4330
-4320
-4340
-4360
-4350
-4360
-4360
-4370
-4350
-4350
-4350
-4320
-4320
-4310
-4290
-4290
-4250
-4230
-4210
-4180
-4160
-4130
-4110
-4080
-4040
-4030
-3980
-3960
-3920
-3880
-3870
-3820
-3820
-3780
-3760
-3750
-3730
-3720
-3700
-3700
-3680
-3670
-3670
-3660
-3660
-3650
-3640
-3660
-3650
-3670
-3670
-3680
-3700
-3700
-3730
-3730
-3750
-3790
-3800
-3830
-3860
-3880
-3920
-3940
-3980
-4010
-4050
-4080
-4110
-4150
-4160
-4210
-4220
-4240
-4270
-4290
-4300
-4330
-4330
-4360
-4380
-4380
-4390
-4390
-4400
-4390
-4390
-4410
-4390
-4400
-4380
-4390
-4360
-4350
-4340
-4310
-4300
-4290
-4260
-4240
-4200
-4190
-4170
-4130
-4120
-4080
-4050
-4020
-3980
-3970
-3940
-3900
-3880
-3850
-3830
-3800
-3780
-3780
-3760
-3740
-3730
-3700
-3700
-3690
-3700
-3690
-3690
-3700
-3700
-3720
-3710
-3730
-3740
-3750
-3770
-3760
-3800
-3810
-3840
-3880
-3910
-3960
-3980
-4020
-4040
-4060
-4100
-4100
-4140
-4170
-4190
-4230
-4260
-4290
-4310
-4340
-4360
-4380
-4400
-4400
-4420
-4430
-4430
-4440
-4450
-4460
-4460
-4450
-4450
-4430
-4420
-4420
-4390
-4390
-4370
-4340
-4330
-4300
-4280
-4250
-4230
-4220
-4180
-4160
-4130
-4110
-4070
-4030
-4010
-3980
-3960
-3920
-3900
-3890
-3850
-3840
-3820
-3800
-3790
-3770
-3770
-3760
-3740
-3750
-3730
-3740
-3750
-3750
-3770
-3760
-3780
-3800
-3790
-3810
-3820
-3840
-3860
-3870
-3900
-3910
-3950
-3980
-4000
-4040
-4070
-4110
-4130
-4170
-4210
-4230
-4270
-4290
-4310
-4350
-4340
-4390
-4390
-4410
-4440
-4440
-4480
-4470
-4490
-4500
-4490
-4520
-4490
-4500
-4500
-4480
-4490
-4460
-4450
-4440
-4420
-4410
-4390
-4360
-4350
-4320
-4290
-4270
-4240
-4210
-4180
-4160
-4120
-4100
-4060
-4020
-4020
-3960
-3950
-3920
-3910
-3890
-3860
-3860
-3830
-3810
-3800
-3780
-3780
-3780
-3780
-3790
-3780
-3790
-3800
-3790
-3810
-3810
-3840
-3830
-3860
-3900
-3910
-3960
-3970
-3990
-4020
-4040
-4070
-4090
-4110
-4160
-4170
-4220
-4240
-4270
-4300
-4320
-4370
-4380
-4410
-4440
-4440
-4470
-4480
-4510
-4510
-4520
-4540
-4530
-4540
-4540
-4540
-4540
-4530
-4530
-4510
-4500
-4490
-4470
-4460
-4450
-4430
-4430
-4400
-4390
-4350
-4320
-4310
-4260
-4250
-4210
-4190
-4150
-4110
-4080
-4060
-4030
-4010
-3970
-3970
-3940
-3910
-3900
-3890
-3870
-3860
-3850
-3850
-3830
-3830
-3820
-3830
-3830
-3840
-3840
-3850
-3870
-3900
-3910
-3930
-3940
-3980
-3990
-4000
-4030
-4040
-4090
-4110
-4140
-4170
-4190
-4230
-4260
-4290
-4340
-4350
-4390
-4410
-4430
-4450
-4460
-4510
-4510
-4530
-4550
-4550
-4570
-4570
-4590
-4590
-4590
-4610
-4590
-4590
-4590
-4560
-4580
-4550
-4530
-4530
-4500
-4490
-4460
-4430
-4420
-4390
-4360
-4340
-4310
-4290
-4250
-4230
-4190
-4160
-4130
-4090
-4070
-4030
-4020
-3980
-3980
-3950
-3920
-3910
-3900
-3880
-3870
-3870
-3870
-3870
-3870
-3880
-3870
-3890
-3890
-3900
-3920
-3920
-3940
-3950
-3960
-3990
-4000
-4050
-4070
-4110
-4150
-4170
-4210
-4240
-4270
-4290
-4320
-4360
-4380
-4410
-4440
-4460
-4500
-4510
-4520
-4560
-4560
-4590
-4590
-4620
-4630
-4630
-4650
-4640
-4670
-4660
-4650
-4650
-4640
-4640
-4620
-4600
-4610
-4570
-4560
-4550
-4500
-4500
-4460
-4440
-4410
-4390
-4360
-4320
-4300
-4260
-4230
-4210
-4170
-4150
-4120
-4090
-4080
-4030
-4030
-3980
-3970
-3970
-3940
-3930
-3910
-3900
-3910
-3900
-3910
-3920
-3930
-3950
-3940
-3970
-3970
-3990
-4000
-4000
-4040
-4060
-4090
-4110
-4130
-4160
-4180
-4220
-4240
-4270
-4310
-4330
-4380
-4390
-4430
-4460
-4480
-4520
-4540
-4560
-4580
-4590
-4630
-4640
-4650
-4680
-4660
-4680
-4680
-4700
-4690
-4700
-4710
-4710
-4700
-4690
-4670
-4670
-4640
-4620
-4610
-4580
-4570
-4530
-4510
-4490
-4460
-4440
-4400
-4380
-4340
-4310
-4290
-4250
-4230
-4200
-4180
-4150
-4120
-4110
-4080
-4070
-4050
-4020
-4020
-4010
-3990
-3990
1920.0
1880.0
1830.0
1790.0
1760.0
1740.0
1720.0
1700.0
1700.0
1660.0
1660.0
1630.0
1610.0
1610.0
1610.0
1600.0
1590.0
1590.0
1580.0
1590.0
1600.0
1590.0
1610.0
1620.0
1640.0
1660.0
1680.0
1710.0
1730.0
1760.0
1790.0
1810.0
1840.0
1880.0
1920.0
1940.0
1990.0
2010.0
2040.0
2060.0
2080.0
2100.0
2110.0
2140.0
2160.0
2180.0
2190.0
2220.0
2260.0
2260.0
2290.0
2300.0
2310.0
2320.0
2320.0
2340.0
2350.0
2370.0
2390.0
2410.0
2440.0
2450.0
2480.0
2470.0
2480.0
2490.0
2470.0
2450.0
2410.0
2380.0
2350.0
2330.0
2300.0
2260.0
2220.0
2170.0
2100.0
2050.0
2000.0
1960.0
1920.0
1890.0
1860.0
1820.0
1780.0
1750.0
1720.0
1690.0
1660.0
1640.0
1610.0
1590.0
1590.0
1580.0
1560.0
1570.0
1560.0
1550.0
1550.0
1550.0
1570.0
1580.0
1580.0
1590.0
1600.0
1620.0
1630.0
1660.0
1680.0
1710.0
1750.0
1790.0
1820.0
1880.0
1920.0
1960.0
2010.0
2030.0
2070.0
2100.0
2120.0
2150.0
2170.0
2180.0
2210.0
2230.0
2260.0
2270.0
2270.0
2270.0
2280.0
2310.0
2330.0
2350.0
2350.0
2370.0
2360.0
2360.0
2370.0
2380.0
2400.0
2400.0
2410.0
2400.0
2390.0
2380.0
2350.0
2330.0
2310.0
2290.0
2260.0
2240.0
2200.0
2180.0
2140.0
2100.0
2060.0
2020.0
1990.0
1940.0
1910.0
1870.0
1830.0
1810.0
1770.0
1730.0
1710.0
1690.0
1670.0
1640.0
1650.0
1630.0
1630.0
1620.0
1610.0
1600.0
1600.0
1580.0
1590.0
1590.0
1600.0
1600.0
1620.0
1620.0
1650.0
1680.0
1700.0
1740.0
1780.0
1800.0
1850.0
1880.0
1910.0
1950.0
1980.0
2040.0
2060.0
2100.0
2130.0
2140.0
2170.0
2190.0
2220.0
2250.0
2260.0
2280.0
2310.0
2330.0
2350.0
2360.0
2380.0
2400.0
2400.0
2410.0
2420.0
2420.0
2430.0
2440.0
2450.0
2460.0
2460.0
2470.0
2460.0
2460.0
2430.0
2430.0
2400.0
2380.0
2360.0
2320.0
2290.0
2260.0
2220.0
2180.0
2130.0
2090.0
2060.0
2000.0
1980.0
1920.0
1890.0
1860.0
1820.0
1780.0
1750.0
1720.0
1690.0
1670.0
1640.0
1620.0
1610.0
1590.0
1590.0
1570.0
1570.0
1560.0
1570.0
1560.0
1570.0
1570.0
1580.0
1590.0
1600.0
1620.0
1630.0
1650.0
1680.0
1710.0
1740.0
1770.0
1800.0
1840.0
1870.0
1900.0
1940.0
1970.0
2020.0
2050.0
2090.0
2110.0
2150.0
2180.0
2210.0
2240.0
2280.0
2310.0
2330.0
2340.0
2360.0
2360.0
2380.0
2380.0
2390.0
2390.0
2400.0
2410.0
2420.0
2430.0
2440.0
2430.0
2440.0
2450.0
2450.0
2450.0
2450.0
2430.0
2420.0
2380.0
2380.0
2340.0
2330.0
2290.0
2250.0
2200.0
2160.0
2100.0
2060.0
2010.0
1980.0
1940.0
1890.0
1860.0
1830.0
1780.0
1760.0
1710.0
1690.0
1650.0
1630.0
1610.0
1590.0
1570.0
1560.0
1550.0
1540.0
1530.0
1540.0
1540.0
1540.0
1550.0
1570.0
1570.0
1590.0
1620.0
1630.0
1640.0
1680.0
1700.0
1730.0
1750.0
1800.0
1840.0
1890.0
1900.0
1940.0
1970.0
2010.0
2020.0
2050.0
2060.0
2080.0
2100.0
2110.0
2130.0
2150.0
2180.0
2210.0
2240.0
2250.0
2280.0
2290.0
2320.0
2330.0
2360.0
2370.0
2400.0
2410.0
2430.0
2460.0
2480.0
2490.0
2470.0
2450.0
2410.0
2390.0
2360.0
2330.0
2300.0
2280.0
2260.0
2250.0
2240.0
2210.0
2180.0
2150.0
2120.0
2080.0
2040.0
2020.0
1980.0
1950.0
1910.0
1870.0
1820.0
1780.0
1750.0
1730.0
1710.0
1690.0
1660.0
1650.0
1630.0
1620.0
1600.0
1570.0
1560.0
1560.0
1560.0
1580.0
1590.0
1610.0
1620.0
1630.0
1650.0
1660.0
1660.0
1700.0
1730.0
1750.0
1790.0
1810.0
1850.0
1890.0
1920.0
1960.0
2000.0
2050.0
2080.0
2120.0
2150.0
2180.0
2210.0
2230.0
2260.0
2270.0
2300.0
2310.0
2340.0
2360.0
2370.0
2390.0
2410.0
2430.0
2450.0
2460.0
2480.0
2490.0
2500.0
2490.0
2490.0
2470.0
2470.0
2460.0
2450.0
2450.0
2460.0
2430.0
2420.0
2380.0
2340.0
2310.0
2270.0
2250.0
2190.0
2140.0
2090.0
2040.0
2000.0
1940.0
1900.0
1860.0
1820.0
1800.0
1760.0
1730.0
1690.0
1660.0
1650.0
1630.0
1620.0
1600.0
1610.0
1600.0
1600.0
1580.0
1570.0
1560.0
1560.0
1570.0
1560.0
1570.0
1570.0
1580.0
1600.0
1640.0
1670.0
1710.0
1750.0
1770.0
1820.0
1840.0
1880.0
1900.0
1930.0
1970.0
2010.0
2050.0
2080.0
2110.0
2150.0
2170.0
2200.0
2230.0
2250.0
2280.0
2300.0
2330.0
2340.0
2350.0
2390.0
2390.0
2400.0
2420.0
2410.0
2430.0
2430.0
2440.0
2450.0
2450.0
2460.0
2460.0
2460.0
2460.0
2450.0
2440.0
2420.0
2420.0
2390.0
2360.0
2340.0
2310.0
2260.0
2240.0
2200.0
2150.0
2120.0
2080.0
2030.0
1990.0
1950.0
1910.0
1880.0
1840.0
1810.0
1780.0
1750.0
1730.0
1700.0
1670.0
1660.0
1640.0
1610.0
1610.0
1600.0
1580.0
1590.0
1580.0
1580.0
1580.0
1590.0
1600.0
1610.0
1620.0
1620.0
1650.0
1670.0
1690.0
1710.0
1740.0
1760.0
1790.0
1840.0
1870.0
1910.0
1940.0
1980.0
2020.0
2050.0
2090.0
2120.0
2140.0
2190.0
2210.0
2230.0
2270.0
2290.0
2310.0
2330.0
2350.0
2370.0
2380.0
2410.0
2430.0
2440.0
2430.0
2450.0
2440.0
2460.0
2450.0
2460.0
2460.0
2460.0
2460.0
2450.0
2440.0
2430.0
2410.0
2390.0
2360.0
2330.0
2310.0
2280.0
2250.0
2210.0
2160.0
2120.0
2080.0
2030.0
1990.0
1950.0
1920.0
1870.0
1840.0
1810.0
1770.0
1750.0
1730.0
1690.0
1680.0
1660.0
1640.0
1610.0
1610.0
1590.0
1590.0
1580.0
1600.0
1600.0
1610.0
1610.0
1610.0
1600.0
1620.0
1630.0
1660.0
1680.0
1700.0
1730.0
1760.0
1780.0
1810.0
1840.0
1870.0
1910.0
1940.0
1980.0
2020.0
2050.0
2090.0
2110.0
2130.0
2170.0
2210.0
2240.0
2290.0
2320.0
2330.0
2360.0
2360.0
2390.0
2400.0
2410.0
2410.0
2420.0
2420.0
2430.0
2440.0
2450.0
2460.0
2470.0
2480.0
2470.0
2470.0
2460.0
2450.0
2430.0
2410.0
2390.0
2370.0
2340.0
2330.0
2280.0
2260.0
2210.0
2160.0
2130.0
2070.0
2040.0
2000.0
1960.0
1920.0
1890.0
1840.0
1830.0
1790.0
1770.0
1740.0
1700.0
1690.0
1660.0
1650.0
1640.0
1600.0
1610.0
1600.0
1600.0
1590.0
1600.0
1600.0
1600.0
1610.0
1620.0
1620.0
1640.0
1650.0
1680.0
1690.0
1730.0
1750.0
1790.0
1800.0
1850.0
1880.0
1920.0
1950.0
2000.0
2030.0
2060.0
2100.0
2130.0
2160.0
2180.0
2220.0
2240.0
2260.0
2300.0
2340.0
2360.0
2370.0
2390.0
2390.0
2410.0
2430.0
2430.0
2430.0
2450.0
2450.0
2450.0
2450.0
2450.0
2460.0
2460.0
2460.0
2460.0
2440.0
2450.0
2430.0
2430.0
2400.0
2380.0
2350.0
2300.0
2270.0
2210.0
2180.0
2120.0
2090.0
2040.0
2010.0
1960.0
1940.0
1900.0
1870.0
1830.0
1790.0
1780.0
1740.0
1710.0
1690.0
1670.0
1660.0
1640.0
1640.0
1630.0
1620.0
1620.0
1600.0
1600.0
1610.0
1610.0
1620.0
1620.0
1640.0
1660.0
1680.0
1690.0
1720.0
1750.0
1760.0
1790.0
1820.0
1850.0
1880.0
1920.0
1940.0
2000.0
2030.0
2070.0
2110.0
2120.0
2170.0
2190.0
2230.0
2270.0
2290.0
2320.0
2340.0
2370.0
2360.0
2380.0
2390.0
2400.0
2390.0
2400.0
2420.0
2430.0
2430.0
2440.0
2450.0
2460.0
2460.0
2460.0
2470.0
2450.0
2450.0
2440.0
2430.0
2410.0
2400.0
2380.0
2350.0
2320.0
2280.0
2240.0
2200.0
2140.0
2100.0
2060.0
2020.0
1980.0
1940.0
1900.0
1890.0
1850.0
1820.0
1790.0
1750.0
1730.0
1720.0
1670.0
1670.0
1640.0
1640.0
1640.0
1630.0
1620.0
1620.0
1620.0
1620.0
1630.0
1640.0
1640.0
1660.0
1670.0
1690.0
1710.0
1730.0
1750.0
1790.0
1810.0
1840.0
1890.0
1920.0
1960.0
1990.0
2020.0
2080.0
2090.0
2130.0
2150.0
2180.0
2200.0
2230.0
2260.0
2290.0
2300.0
2330.0
2350.0
2360.0
2380.0
2400.0
2410.0
2410.0
2430.0
2440.0
2460.0
2440.0
2460.0
2460.0
2480.0
2470.0
2470.0
2460.0
2460.0
2460.0
2440.0
2420.0
2410.0
2390.0
2360.0
2330.0
2300.0
2250.0
2230.0
2170.0
2140.0
2100.0
2050.0
2020.0
1970.0
1940.0
1900.0
1870.0
1840.0
1820.0
1790.0
1750.0
1730.0
1710.0
1690.0
1680.0
1660.0
1640.0
1640.0
1640.0
1640.0
1630.0
1630.0
1640.0
1640.0
1640.0
1640.0
1660.0
1680.0
1700.0
1720.0
1750.0
1780.0
1810.0
1840.0
1870.0
1910.0
1940.0
1980.0
2000.0
2050.0
2070.0
2120.0
2140.0
2180.0
2200.0
2230.0
2250.0
2280.0
2300.0
2320.0
2350.0
2370.0
2370.0
2400.0
2410.0
2420.0
2440.0
2440.0
2460.0
2460.0
2470.0
2470.0
2470.0
2470.0
2490.0
2480.0
2480.0
2470.0
2470.0
2440.0
2430.0
2410.0
2380.0
2370.0
2330.0
2300.0
2270.0
2220.0
2180.0
2140.0
2090.0
2050.0
2000.0
1970.0
1930.0
1910.0
1880.0
1830.0
1810.0
1800.0
1780.0
1740.0
1730.0
1720.0
1690.0
1690.0
1670.0
1660.0
1660.0
1650.0
1660.0
1660.0
1660.0
1670.0
1680.0
1670.0
1690.0
1700.0
1710.0
1740.0
1760.0
1780.0
1820.0
1850.0
1870.0
1920.0
1950.0
1980.0
2030.0
2070.0
2090.0
2130.0
2160.0
2190.0
2230.0
2250.0
2280.0
2300.0
2310.0
2340.0
2350.0
2370.0
2390.0
2400.0
2420.0
2430.0
2440.0
2450.0
2470.0
2470.0
2500.0
2480.0
2480.0
2480.0
2480.0
2470.0
2480.0
2470.0
2460.0
2460.0
2450.0
2430.0
2410.0
2380.0
2350.0
2310.0
2290.0
2240.0
2210.0
2160.0
2120.0
2070.0
2030.0
1990.0
1960.0
1920.0
1890.0
1850.0
1820.0
1790.0
1780.0
1750.0
1740.0
1720.0
1710.0
1700.0
1690.0
1670.0
1670.0
1660.0
1660.0
1660.0
1670.0
1670.0
1680.0
1680.0
1700.0
1710.0
1750.0
1760.0
1780.0
1800.0
1840.0
1860.0
1890.0
1910.0
1960.0
2000.0
2030.0
2070.0
2120.0
2130.0
2170.0
2200.0
2230.0
2250.0
2290.0
2310.0
2330.0
2340.0
2370.0
2380.0
2400.0
2410.0
2420.0
2420.0
2440.0
2440.0
2450.0
2450.0
2470.0
2470.0
2480.0
2490.0
2510.0
2510.0
2510.0
2500.0
2480.0
2470.0
2460.0
2440.0
2400.0
2390.0
2360.0
2330.0
2290.0
2270.0
2230.0
2180.0
2140.0
2080.0
2050.0
2000.0
1960.0
1920.0
1880.0
1850.0
1820.0
1790.0
1770.0
1730.0
1730.0
1700.0
1680.0
1670.0
1670.0
1660.0
1660.0
1660.0
1660.0
1660.0
1660.0
1660.0
1670.0
1680.0
1700.0
1690.0
1740.0
1750.0
1790.0
1820.0
1850.0
1900.0
1920.0
1950.0
1970.0
2020.0
2040.0
2080.0
2110.0
2150.0
2160.0
2200.0
2210.0
2260.0
2270.0
2300.0
2310.0
2350.0
2370.0
2390.0
2410.0
2420.0
2430.0
2440.0
2460.0
2460.0
2480.0
2480.0
2480.0
2480.0
2490.0
2490.0
2500.0
2490.0
2500.0
2490.0
2480.0
2460.0
2460.0
2430.0
2410.0
2390.0
2360.0
2330.0
2300.0
2240.0
2210.0
2170.0
2120.0
2090.0
2050.0
2020.0
1980.0
1950.0
-4300
-4280
-4290
-4280
-4270
-4270
-4240
-4240
-4210
-4200
-4170
-4150
-4140
-4120
-4090
-4060
-4040
-4020
-3970
-3950
-3910
-3870
-3850
-3790
-3780
-3750
-3720
-3700
-3650
-3650
-3620
-3610
-3590
-3570
-3550
-3530
-3510
-3510
-3500
-3510
-3510
-3510
-3510
-3520
-3530
-3540
-3540
-3570
-3570
-3600
-3620
-3640
-3660
-3680
-3710
-3730
-3770
-3800
-3820
-3870
-3880
-3940
-3960
-3990
-4040
-4050
-4090
-4100
-4130
-4140
-4160
-4190
-4210
-4230
-4250
-4240
-4270
-4270
-4260
-4280
-4270
-4280
-4270
-4260
-4260
-4250
-4260
-4240
-4230
-4200
-4160
-4160
-4120
-4090
-4070
-4040
-4010
-3980
-3960
-3920
-3880
-3870
-3830
-3790
-3780
-3740
-3720
-3680
-3680
-3640
-3620
-3610
-3570
-3580
-3550
-3530
-3530
-3510
-3510
-3510
-3510
-3510
-3510
-3530
-3520
-3530
-3570
-3550
-3590
-3600
-3620
-3640
-3650
-3700
-3710
-3740
-3760
-3800
-3820
-3850
-3880
-3920
-3940
-3980
-3990
-4030
-4060
-4090
-4130
-4150
-4180
-4210
-4210
-4240
-4230
-4260
-4260
-4270
-4290
-4270
-4270
-4270
-4260
-4270
-4240
-4240
-4230
-4210
-4200
-4170
-4150
-4140
-4110
-4100
-4070
-4050
-4000
-3960
-3940
-3900
-3880
-3840
-3820
-3790
-3750
-3740
-3700
-3670
-3660
-3630
-3610
-3580
-3570
-3550
-3530
-3520
-3510
-3510
-3510
-3510
-3520
-3510
-3510
-3520
-3530
-3540
-3540
-3560
-3570
-3590
-3610
-3620
-3660
-3670
-3700
-3740
-3750
-3780
-3820
-3860
-3880
-3920
-3950
-3980
-4010
-4050
-4060
-4090
-4110
-4130
-4160
-4170
-4200
-4200
-4240
-4230
-4250
-4270
-4270
-4280
-4270
-4270
-4270
-4250
-4250
-4230
-4210
-4210
-4190
-4180
-4160
-4140
-4110
-4080
-4060
-4040
-4020
-3990
-3930
-3910
-3890
-3850
-3820
-3780
-3770
-3730
-3690
-3670
-3640
-3630
-3600
-3570
-3560
-3530
-3530
-3520
-3510
-3510
-3490
-3510
-3500
-3500
-3500
-3510
-3520
-3530
-3540
-3560
-3570
-3600
-3600
-3630
-3650
-3650
-3700
-3710
-3750
-3780
-3790
-3840
-3850
-3900
-3930
-3970
-4010
-4030
-4060
-4090
-4100
-4130
-4130
-4160
-4190
-4190
-4230
-4220
-4240
-4260
-4250
-4270
-4250
-4250
-4260
-4250
-4250
-4220
-4230
-4210
-4190
-4180
-4150
-4130
-4110
-4080
-4060
-4020
-4000
-3970
-3940
-3910
-3880
-3850
-3810
-3790
-3760
-3720
-3700
-3660
-3640
-3620
-3580
-3570
-3550
-3540
-3520
-3500
-3500
-3480
-3500
-3490
-3470
-3500
-3490
-3510
-3510
-3530
-3550
-3550
-3570
-3580
-3590
-3630
-3640
-3690
-3710
-3730
-3750
-3790
-3820
-3830
-3880
-3910
-3930
-3970
-3980
-4010
-4040
-4060
-4090
-4090
-4130
-4140
-4160
-4190
-4210
-4230
-4250
-4250
-4270
-4250
-4260
-4260
-4240
-4240
-4240
-4220
-4220
-4190
-4190
-4160
-4130
-4120
-4080
-4070
-4030
-4010
-3980
-3950
-3930
-3890
-3870
-3830
-3790
-3780
-3720
-3710
-3670
-3650
-3620
-3590
-3580
-3560
-3540
-3530
-3510
-3510
-3490
-3490
-3490
-3470
-3490
-3480
-3500
-3500
-3500
-3530
-3510
-3540
-3560
-3580
-3600
-3620
-3640
-3670
-3690
-3730
-3740
-3780
-3800
-3820
-3860
-3880
-3930
-3950
-3970
-4010
-4030
-4060
-4080
-4110
-4130
-4150
-4160
-4180
-4190
-4210
-4200
-4230
-4230
-4240
-4230
-4230
-4230
-4220
-4210
-4200
-4180
-4170
-4150
-4140
-4120
-4100
-4090
-4040
-4020
-3990
-3960
-3940
-3890
-3860
-3850
-3800
-3790
-3740
-3730
-3690
-3660
-3650
-3610
-3610
-3570
-3550
-3560
-3520
-3510
-3500
-3480
-3480
-3470
-3470
-3470
-3460
-3470
-3470
-3500
-3500
-3520
-3550
-3530
-3570
-3590
-3610
-3640
-3660
-3680
-3710
-3730
-3770
-3780
-3830
-3850
-3880
-3910
-3940
-3970
-3990
-4020
-4040
-4060
-4100
-4120
-4150
-4180
-4200
-4230
-4220
-4240
-4240
-4210
-4240
-4220
-4220
-4220
-4200
-4200
-4180
-4180
-4160
-4140
-4130
-4090
-4090
-4050
-4020
-4010
-3970
-3960
-3920
-3890
-3870
-3810
-3800
-3750
-3720
-3700
-3660
-3650
-3610
-3600
-3580
-3560
-3560
-3510
-3500
-3480
-3460
-3450
-3450
-3440
-3460
-3440
-3460
-3460
-3460
-3480
-3470
-3490
-3490
-3530
-3550
-3560
-3600
-3620
-3650
-3670
-3690
-3730
-3750
-3810
-3830
-3860
-3910
-3930
-3970
-4000
-4030
-4050
-4070
-4100
-4120
-4130
-4160
-4160
-4190
-4200
-4200
-4220
-4210
-4240
-4230
-4230
-4230
-4200
-4220
-4190
-4190
-4170
-4160
-4140
-4110
-4100
-4080
-4060
-4030
-3990
-3980
-3960
-3900
-3910
-3850
-3830
-3790
-3750
-3730
-3700
-3680
-3640
-3620
-3600
-3570
-3550
-3540
-3520
-3520
-3480
-3480
-3470
-3470
-3470
-3450
-3470
-3460
-3460
-3480
-3480
-3500
-3510
-3520
-3550
-3540
-3590
-3600
-3630
-3660
-3670
-3700
-3720
-3750
-3780
-3800
-3840
-3860
-3890
-3940
-3950
-3980
-4010
-4040
-4060
-4080
-4110
-4120
-4140
-4150
-4150
-4180
-4170
-4190
-4190
-4180
-4190
-4170
-4170
-4180
-4160
-4170
-4150
-4150
-4130
-4100
-4090
-4060
-4040
-4020
-3990
-3970
-3930
-3910
-3870
-3830
-3810
-3770
-3750
-3720
-3690
-3660
-3640
-3620
-3580
-3570
-3550
-3510
-3510
-3490
-3470
-3470
-3450
-3450
-3440
-3450
-3460
-3460
-3470
-3470
-3470
-3490
-3490
-3510
-3520
-3560
-3560
-3590
-3610
-3630
-3650
-3690
-3710
-3740
-3770
-3810
-3820
-3860
-3910
-3920
-3960
-3980
-4010
-4050
-4050
-4090
-4090
-4110
-4140
-4140
-4170
-4170
-4190
-4190
-4180
-4190
-4170
-4170
-4180
-4160
-4160
-4140
-4120
-4120
-4090
-4080
-4050
-4030
-4020
-3990
-3990
-3940
-3930
-3890
-3850
-3830
-3790
-3760
-3730
-3700
-3670
-3640
-3630
-3590
-3580
-3560
-3530
-3510
-3490
-3470
-3470
-3440
-3460
-3420
-3420
-3430
-3410
-3430
-3440
-3450
-3450
-3440
-3480
-3480
-3510
-3540
-3560
-3600
-3610
-3640
-3660
-3670
-3710
-3720
-3770
-3780
-3810
-3860
-3870
-3930
-3950
-3980
-4000
-4000
-4040
-4060
-4070
-4110
-4110
-4140
-4160
-4160
-4170
-4160
-4180
-4180
-4180
-4180
-4170
-4170
-4160
-4140
-4140
-4110
-4100
-4070
-4060
-4030
-4010
-3980
-3950
-3940
-3910
-3870
-3850
-3820
-3790
-3760
-3730
-3710
-3650
-3650
-3610
-3570
-3560
-3530
-3520
-3500
-3480
-3480
-3450
-3460
-3440
-3430
-3440
-3430
-3430
-3440
-3440
-3450
-3450
-3480
-3470
-3490
-3510
-3520
-3550
-3570
-3590
-3620
-3640
-3680
-3700
-3730
-3760
-3780
-3820
-3850
-3860
-3900
-3920
-3970
-3980
-4010
-4040
-4060
-4080
-4090
-4120
-4110
-4140
-4150
-4150
-4170
-4170
-4180
-4170
-4170
-4160
-4150
-4140
-4130
-4110
-4100
-4080
-4050
-4040
-4010
-3980
-3960
-3930
-3910
-3870
-3850
-3820
-3780
-3750
-3720
-3700
-3650
-3640
-3610
-3590
-3570
-3550
-3530
-3510
-3480
-3480
-3470
-3450
-3460
-3430
-3460
-3440
-3450
-3450
-3450
-3470
-3450
-3480
-3480
-3480
-3500
-3510
-3530
-3560
-3570
-3600
-3610
-3650
-3660
-3700
-3720
-3750
-3790
-3810
-3840
-3880
-3890
-3920
-3960
-3980
-4000
-4020
-4050
-4070
-4070
-4110
-4090
-4140
-4130
-4150
-4170
-4170
-4170
-4160
-4150
-4160
-4130
-4130
-4110
-4100
-4110
-4060
-4050
-4020
-4010
-3980
-3960
-3950
-3900
-3890
-3860
-3820
-3810
-3760
-3750
-3710
-3670
-3660
-3630
-3600
-3580
-3550
-3540
-3510
-3490
-3480
-3460
-3450
-3430
-3430
-3430
-3420
-3430
-3410
-3430
-3430
-3430
-3430
-3450
-3480
-3470
-3490
-3510
-3510
-3550
-3570
-3590
-3640
-3660
-3700
-3740
-3760
-3790
-3810
-3860
-3880
-3900
-3950
-3940
-3990
-4000
-4020
-4050
-4060
-4080
-4090
-4100
-4120
-4110
-4130
-4130
-4130
-4150
-4120
-4130
-4120
-4140
-4130
-4110
-4100
-4080
-4080
-4050
-4020
-4010
-3960
-3970
-3930
-3890
-3870
-3830
-3820
-3770
-3760
-3720
-3690
-3680
-3630
-3610
-3580
-3540
-3540
-3520
-3500
-3490
-3460
-3460
-3430
-3430
-3430
-3420
-3430
-3400
-3420
-3410
-3410
-3420
-3430
-3440
-3470
-3480
-3500
-3510
-3540
-3550
-3570
-3600
-3620
-3660
-3690
-3710
-3750
-3770
-3810
-3840
-3870
-3900
-3910
-3960
-3970
-3980
-4020
-4020
-4050
-4060
-4070
-4100
-4110
-4130
-4130
-4150
-4150
-4140
-4150
-4130
-4130
-4130
-4110
-4090
-4070
-4070
-4040
-4020
-4010
-3970
-3960
-3930
-3910
-3890
-3850
-3840
-3790
-3770
-3730
-3700
-3670
-3640
-3610
-3600
-3550
-3560
-3530
-3510
-3500
-3470
-3450
-3440
-3420
-3420
-3400
-3420
-3400
-3410
-3400
-3400
-3410
-3410
-3430
-3450
-3450
-3470
-3480
-3510
-3520
-3560
-3590
-3610
-3660
-3670
-3700
-3740
-3750
-3790
-3810
-3840
-3880
-3890
-3930
-3950
-3970
-4010
-4010
-4050
-4050
-4070
-4090
-4090
-4120
-4120
-4130
-4140
-4140
-4130
-4130
-4120
-4110
-4110
-4110
-4090
-4080
-4080
-4050
-4050
-4000
-3980
-3970
-3930
-3920
-3880
-3860
-3830
-3800
-3760
-3730
-3700
-3670
-3640
-3620
-3580
-3560
-3540
-3510
-3500
-3470
-3470
-3450
-3430
-3430
-3410
-3420
-3410
-3390
-3400
-3390
-3410
-3410
-3420
-3440
-3440
-3450
-3460
-3480
-3500
-3510
-3540
-3570
-3580
-3630
-3640
-3680
-3700
-3720
-3760
-3780
-3830
-3840
-3880
-3900
-3920
-3960
-3970
-3990
-4020
-4030
-4060
-4060
-4080
-4090
-4100
-4110
-4100
-4120
-4110
-4110
-4110
-4090
-4100
-4090
-4060
-4060
-4040
-4040
-4010
-3990
-3980
-3930
-3930
-3880
-3870
-3840
-3800
-3790
-3750
-3720
-3710
-3670
-3640
-3610
-3580
-3560
-3520
-3510
-3470
-3470
-3450
-3420
-3420
-3400
-3400
-3380
-3380
-3390
-3370
-3380
-3400
-3400
-3430
-3420
-3440
-3450
-3460
-3480
-3500
-3530
-3550
-3570
-3610
-3620
-3660
-3680
-3700
-3750
-3760
-3800
-3820
-3850
-3880
-3900
-3930
-3970
-3990
-4010
-4020
-4040
-4060
-4080
-4100
-4110
-4110
-4110
-4110
-4120
-4110
-4120
-4100
-4100
-4090
-4070
-4060
-4050
-4040
-4020
-4020
-4010
-3990
-3960
-3950
-3910
-3890
-3840
-3830
-3790
-3760
-3740
-3690
-3680
-3640
-3610
-3590
-3550
-3530
-3510
-3500
-3480
-3450
-3460
-3430
-3430
-3420
-3400
-3410
-3400
-3400
-3410
-3400
-3420
-3420
-3430
-3450
-3460
-3480
-3480
-3520
-3520
-3550
-3580
-3580
-3620
-3640
-3680
-3710
-3720
-3770
-3800
-3820
-3860
-3880
-3900
-3930
-3960
-3970
-3990
-4020
-4020
-4040
-4060
-4060
-4090
-4090
-4090
-4110
-4090
-4110
-4100
-4090
-4090
-4060
-4090
-4060
-4060
-4050
-4030
-4020
-3990
-3970
-3950
-3900
-3890
-3850
-3820
-3790
-3740
-3730
-3690
-3660
-3630
-3610
-3570
-3550
-3540
-3510
-3490
-3480
-3450
-3440
-3420
-3420
-3410
-3380
-3400
-3380
-3380
-3380
-3380
-3390
-3400
-3410
-3430
-3430
-3460
-3480
-3500
-3510
-3510
-3550
-3560
-3580
-3620
-3630
-3660
-3680
-3710
-3750
-3770
-3820
-3830
-3860
-3880
-3910
-3930
-3960
-3980
-4000
-4020
-4040
-4050
-4070
-4080
-4080
-4100
-4080
-4100
-4100
-4090
-4100
-4070
-4080
-4070
-4050
-4040
-4030
-4010
-4000
-3970
-3960
-3920
-3910
-3870
-3840
-3820
-3770
-3760
-3730
-3690
-3660
-3630
-3600
-3560
-3540
-3530
-3500
-3500
-3460
-3460
-3440
-3410
-3410
-3390
-3380
-3390
-3370
-3380
-3370
-3370
-3370
-3370
-3400
-3400
-3420
-3430
-3440
-3470
-3470
-3510
-3510
-3550
-3570
-3580
-3620
-3640
-3670
-3690
-3720
-3760
-3780
-3820
-3850
-3870
-3900
-3920
-3950
-3960
-3980
-4010
-4030
-4040
-4070
-4080
-4080
-4080
-4070
-4090
-4070
-4080
-4080
-4060
-4060
-4040
-4050
-4030
-4020
-4000
-3970
-3960
-3930
-3910
-3890
-3850
-3840
-3790
-3780
-3750
-3710
-3690
-3640
-3610
-3590
-3550
-3530
-3500
-3480
-3460
-3440
-3430
-3410
-3400
-3380
-3370
-3370
-3350
-3360
-3360
-3350
-3360
-3360
-3370
-3380
-3390
-3420
-3410
-3430
-3450
-3470
-3510
-3520
-3560
-3580
-3610
-3650
-3660
-3700
-3720
-3750
-3770
-3810
-3830
-3840
-3890
-3910
-3920
-3950
-3960
-3980
-4010
-4020
-4050
-4050
-4090
-4090
-4080
-4100
-4080
-4080
-4090
-4060
-4080
-4050
-4060
-4030
-4020
-4000
-3980
-3970
-3940
-3930
-3890
-3860
-3850
-3810
-3790
-3770
-3750
-3720
-3680
-3640
-3630
-3580
-3580
-3530
-3520
-3510
-3480
-3470
-3450
-3440
-3420
-3400
-3390
-3380
-3380
-3380
-3360
-3380
-3360
-3380
-3380
-3390
-3410
-3410
-3430
-3440
-3450
-3470
-3480
-3510
-3530
-3560
-3600
-3600
-3650
-3660
-3690
-3720
-3730
-3780
-3800
-3830
-3870
-3900
-3940
-3960
-3970
-4000
-3990
-4020
-4020
-4030
-4040
-4040
-4060
-4060
-4060
-4070
-4060
-4060
-4050
-4040
-4050
-4030
-4030
-3990
-3980
-3960
-3930
-3920
-3880
-3860
-3840
-3800
-3790
-3740
-3720
-3700
-3650
-3640
-3600
-3580
-3550
-3530
-3520
-3490
-3470
-3460
-3430
-3430
-3410
-3400
-3390
-3380
-3380
-3360
-3370
-3360
-3370
-3370
-3380
-3400
-3390
-3410
-3430
-3450
-3470
-3480
-3500
-3530
-3540
-3570
-3590
-3620
-3650
-3660
-3700
-3720
-3760
-3800
-3810
-3850
-3860
-3900
-3910
-3930
-3960
-3960
-4000
-4000
-4020
-4030
-4040
-4060
-4050
-4050
-4060
-4050
-4060
-4040
-4040
-4040
-4000
-4010
-3980
-3970
-3970
-3930
-3930
-3900
-3860
-3850
-3810
-3810
-3770
-3740
-3730
-3680
-3670
-3630
-3600
-3580
-3540
-3530
-3500
-3470
-3450
-3440
-3430
-3400
-3380
-3380
-3360
-3360
-3350
-3360
-3360
-3360
-3370
-3370
-3380
-3390
-3390
-3410
-3410
-3430
-3450
-3450
-3480
-3500
-3520
-3560
-3570
-3600
-3620
-3660
-3680
-3710
-3730
-3750
-3800
-3810
-3840
-3860
-3890
-3920
-3930
-3950
-3970
-3990
-4010
-4010
-4030
-4050
-4040
-4070
-4060
-4080
-4070
-4060
-4060
-4040
-4040
-4010
-3990
-3980
-3950
-3940
-3910
-3890
-3870
-3840
-3820
-3800
-3760
-3750
-3700
-3700
-3650
-3610
-3600
-3560
-3540
-3510
-3490
-3480
-3440
-3450
-3420
-3400
-3410
-3370
-3380
-3360
-3360
-3360
-3350
-3350
-3360
-3370
-3380
-3370
-3400
-3400
-3420
-3440
-3440
-3480
-3490
-3510
-3540
-3540
-3580
-3600
-3620
-3650
-3670
-3720
-3720
-3770
-3790
-3820
-3840
-3860
-3890
-3910
-3940
-3980
-4000
-4020
-4030
-4030
-4050
-4040
-4050
-4050
-4040
-4040
-4030
-4030
-4030
-4020
-4010
-3990
-3980
-3950
-3930
-3930
-3890
-3890
-3850
-3820
-3810
-3770
-3760
-3710
-3690
-3670
-3620
-3620
-3570
-3550
-3530
-3500
-3500
-3450
-3440
-3430
-3400
-3400
-3370
-3360
-3350
-3350
-3360
-3350
-3360
-3350
-3370
-3360
-3360
-3380
-3390
-3400
-3430
-3430
-3460
-3470
-3500
-3520
-3540
-3570
-3590
-3610
-3650
-3660
-3700
-3720
-3750
-3790
-3800
-3830
-3860
-3870
-3900
-3930
-3940
-3960
-3970
-3990
-3990
-4020
-4010
-4030
-4020
-4030
-4030
-4030
-4020
-4020
-4010
-4010
-3980
-3990
-3960
-3950
-3930
-3900
-3890
-3870
-3840
-3820
-3780
-3780
-3750
-3710
-3690
-3650
-3620
-3590
-3570
-3540
-3510
-3490
-3470
-3440
-3430
-3410
-3400
-3390
-3370
-3370
-3350
-3350
-3340
-3350
-3340
-3350
-3350
-3350
-3360
-3380
-3390
-3390
-3400
-3420
-3430
-3450
-3490
-3500
-3540
-3560
-3590
-3610
-3620
-3670
-3690
-3720
-3750
-3770
-3820
-3830
-3860
-3880
-3900
-3910
-3940
-3950
-3970
-3980
-4000
-4000
-4020
-4030
-4010
-4030
-4020
-4020
-4030
-4000
-4020
-3990
-3980
-3980
-3940
-3940
-3920
-3900
-3890
-3850
-3850
-3820
-3790
-3770
-3730
-3720
-3670
-3650
-3630
-3590
-3560
-3530
-3510
-3490
-3470
-3460
-3430
-3430
-3410
-3390
-3370
-3360
-3350
-3330
-3330
-3330
-3330
-3330
-3330
-3330
-3360
-3350
-3380
-3380
-3390
-3430
-3430
-3460
-3500
-3500
-3540
-3540
-3580
-3580
-3620
-3650
-3670
-3710
-3720
-3750
-3780
-3810
-3840
-3860
-3880
-3910
-3910
-3940
-3950
-3970
-3990
-4000
-4010
-4020
-4030
-4030
-4030
-4040
-4020
-4030
-4020
-4000
-3990
-3970
-3960
-3940
-3910
-3900
-3860
-3860
-3820
-3790
-3780
-3740
-3730
-3690
-3670
-3660
-3610
-3600
-3560
-3530
-3510
-3480
-3460
-3440
-3420
-3410
-3380
-3380
-3350
-3340
-3340
-3320
-3340
-3320
-3340
-3340
-3340
-3350
-3340
-3360
-3360
-3380
-3400
-3410
-3440
-3460
-3490
-3500
-3510
-3550
-3550
-3590
-3630
-3640
-3680
-3690
-3720
-3760
-3780
-3820
-3850
-3860
-3880
-3890
-3930
-3930
-3940
-3980
-3960
-4000
-4000
-4010
-4020
-4010
-4020
-4010
-4000
-4010
-3990
-3980
-3960
-3950
-3940
-3910
-3900
-3870
-3850
-3830
-3800
-3790
-3750
-3730
-3700
-3690
-3660
-3630
-3610
-3580
-3550
-3530
-3510
-3490
-3480
-3430
-3420
-3400
-3390
-3360
-3360
-3350
-3320
-3340
-3330
-3320
-3330
-3310
-3330
-3320
-3350
-3360
-3370
-3390
-3400
-3430
-3440
-3450
-3470
-3480
-3520
-3540
-3560
-3590
-3600
-3640
-3660
-3680
-3730
-3750
-3780
-3810
-3810
-3840
-3860
-3880
-3900
-3920
-3930
-3930
-3960
-3960
-3970
-4000
-4000
-4010
-4020
-4010
-4000
-3990
-3980
-3970
-3940
-3950
-3920
-3900
-3890
-3870
-3840
-3810
-3800
-3760
-3730
-3720
-3680
-3670
-3640
-3620
-3610
-3570
-3560
-3520
-3500
-3480
-3450
-3430
-3410
-3390
-3380
-3360
-3350
-3330
-3330
-3330
-3330
-3330
-3320
-3330
-3340
-3340
-3350
-3340
-3360
-3380
-3400
-3410
-3420
-3460
-3470
-3490
-3520
-3540
-3560
-3590
-3610
-3660
-3670
-3700
-3730
-3740
-3790
-3800
-3830
-3840
-3860
-3890
-3890
-3920
-3920
-3950
-3960
-3960
-3980
-3970
-3980
-3980
-3980
-3980
-3970
-3960
-3950
-3940
-3950
-3910
-3910
-3900
-3870
-3860
-3830
-3810
-3780
-3760
-3760
-3700
-3690
-3670
-3630
-3610
-3580
-3560
-3530
-3500
-3480
-3450
-3440
-3400
-3390
-3370
-3360
-3350
-3330
-3320
-3320
-3310
-3330
-3310
-3330
-3330
-3340
-3340
-3350
-3360
-3380
-3370
-3390
-3400
-3410
-3440
-3450
-3480
-3490
-3530
-3550
-3570
-3600
-3610
-3660
-3670
-3690
-3730
-3750
-3790
-3820
-3840
-3880
-3880
-3920
-3930
-3940
-3960
-3960
-3980
-3980
-3980
-3990
-3970
-3990
-3980
-3970
-3970
-3940
-3940
-3930
-3920
-3920
-3890
-3890
-3860
-3840
-3820
-3790
-3770
-3740
-3710
-3680
-3650
-3620
-3580
-3560
-3530
-3510
-3500
-3470
-3460
-3440
-3410
-3400
-3390
-3370
-3350
-3320
-3320
-3300
-3300
-3290
-3290
-3300
-3290
-3320
-3320
-3350
-3360
-3360
-3380
-3400
-3400
-3430
-3440
-3470
-3470
-3500
-3530
-3540
-3580
-3600
-3630
-3660
-3660
-3710
-3720
-3750
-3790
-3800
-3840
-3850
-3880
-3900
-3900
-3930
-3940
-3950
-3970
-3960
-3980
-3970
-3970
-3970
-3960
-3960
-3950
-3950
-3950
-3920
-3920
-3890
-3880
-3870
-3850
-3840
-3800
-3790
-3760
-3720
-3710
-3670
-3660
-3620
-3600
-3580
-3530
-3520
-3500
-3460
-3450
-3420
-3420
-3380
-3370
-3370
-3340
-3340
-3320
-3320
-3310
-3290
-3310
-3300
-3310
-3320
-3310
-3340
-3320
-3350
-3350
-3370
-3390
-3400
-3430
-3450
-3470
-3500
-3520
-3540
-3580
-3600
-3630
-3650
-3690
-3710
-3740
-3770
-3770
-3820
-3830
-3850
-3880
-3870
-3910
-3910
-3930
-3960
-3950
-3960
-3960
-3960
-3960
-3960
-3970
-3940
-3940
-3940
-3930
-3910
-3900
-3890
-3870
-3840
-3840
-3810
-3800
-3770
-3750
-3740
-3710
-3680
-3660
-3630
-3600
-3560
-3550
-3520
-3500
-3480
-3440
-3430
-3400
-3380
-3370
-3350
-3350
-3320
-3320
-3330
-3300
-3310
-3310
-3300
-3310
-3300
-3330
-3330
-3330
-3360
-3360
-3380
-3390
-3410
-3440
-3450
-3490
-3490
-3530
-3550
-3570
-3600
-3630
-3650
-3680
-3700
-3730
-3760
-3780
-3820
-3830
-3870
-3870
-3900
-3900
-3910
-3940
-3930
-3960
-3950
-3950
-3970
-3970
-3980
-3980
-3970
-3980
-3970
-3960
-3940
-3920
-3920
-3890
-3880
-3850
-3830
-3820
-3770
-3760
-3730
-3720
-3690
-3650
-3630
-3590
-3570
-3540
-3500
-3490
-3460
-3440
-3420
-3400
-3400
-3370
-3360
-3350
-3330
-3330
-3310
-3300
-3310
-3300
-3300
-3300
-3300
-3310
-3310
-3330
-3330
-3350
-3370
-3380
-3410
-3420
-3450
-3470
-3490
-3530
-3540
-3560
-3590
-3620
-3660
-3680
-3710
-3750
-3770
-3810
-3830
-3850
-3870
-3900
-3910
-3920
-3940
-3960
-3960
-3980
-3980
-3990
-3980
-3980
-3990
-3980
-3990
-3970
-3990
-3970
-3950
-3950
-3910
-3910
-3880
-3870
-3840
-3810
-3790
-3770
-3730
-3720
-3680
-3660
-3630
-3610
-3570
-3540
-3510
-3490
-3460
-3450
-3420
-3420
-3410
-3390
-3380
-3350
-3350
-3330
-3310
-3320
-3300
-3320
-3310
-3300
-3330
-3310
-3350
-3340
-3350
-3360
-3370
-3400
-3410
-3430
-3460
-3480
-3510
-3520
-3550
-3570
-3590
-3630
-3650
-3680
-3720
-3730
-3770
-3790
-3820
-3840
-3850
-3890
-3900
-3930
-3940
-3950
-3950
-3960
-3970
-3970
-3970
-3970
-3970
-3970
-3960
-3960
-3950
-3930
-3930
-3910
-3910
-3900
-3880
-3860
-3830
-3820
-3800
-3750
-3740
-3710
-3680
-3650
-3620
-3590
-3550
-3530
-3510
-3470
-3470
-3440
-3430
-3400
-3370
-3380
-3340
-3340
-3330
-3310
-3330
-3310
-3310
-3310
-3310
-3320
-3310
-3330
-3330
-3340
-3360
-3370
-3400
-3410
-3420
-3450
-3440
-3480
-3490
-3520
-3550
-3560
-3590
-3610
-3650
-3690
-3710
-3760
-3790
-3810
-3840
-3840
-3870
-3880
-3890
-3920
-3920
-3940
-3950
-3960
-3970
-3970
-3980
-3980
-3960
-3980
-3960
-3980
-3940
-3950
-3940
-3930
-3920
-3880
-3880
-3850
-3820
-3810
-3780
-3760
-3730
-3710
-3690
-3660
-3640
-3600
-3570
-3560
-3520
-3510
-3470
-3450
-3450
-3410
-3400
-3380
-3350
-3350
-3320
-3320
-3320
-3310
-3310
-3310
-3320
-3320
-3320
-3330
-3320
-3350
-3340
-3370
-3380
-3390
-3420
-3430
-3450
-3480
-3490
-3540
-3550
-3570
-3610
-3630
-3670
-3680
-3710
-3730
-3770
-3800
-3810
-3840
-3870
-3880
-3910
-3910
-3930
-3930
-3950
-3960
-3960
-3980
-3970
-3990
-3990
-3980
-3980
-3960
-3960
-3950
-3920
-3930
-3900
-3880
-3870
-3840
-3840
-3800
-3790
-3770
-3720
-3720
-3680
-3660
-3630
-3600
-3580
-3540
-3520
-3500
-3460
-3450
-3410
-3410
-3390
-3360
-3360
-3320
-3330
-3310
-3300
-3300
-3280
-3300
-3290
-3290
-3310
-3290
-3310
-3310
-3320
-3350
-3360
-3390
-3420
-3430
-3460
-3470
-3500
-3530
-3550
-3580
-3610
-3650
-3670
-3700
-3730
-3740
-3790
-3800
-3820
-3830
-3860
-3880
-3890
-3920
-3930
-3930
-3960
-3950
-3970
-3980
-3980
-4000
-3990
-3980
-3980
-3960
-3960
-3940
-3930
-3920
-3890
-3880
-3850
-3850
-3820
-3800
-3790
-3750
-3730
-3710
-3670
-3660
-3610
-3590
-3560
-3530
-3520
-3470
-3470
-3430
-3420
-3410
-3390
-3390
-3350
-3340
-3340
-3310
-3320
-3300
-3300
-3290
-3290
-3300
-3290
-3310
-3330
-3340
-3370
-3370
-3400
-3420
-3420
-3450
-3460
-3490
-3510
-3530
-3560
-3580
-3620
-3640
-3660
-3700
-3720
-3750
-3760
-3800
-3820
-3830
-3870
-3880
-3890
-3920
-3930
-3960
-3960
-3970
-3980
-3970
-3990
-3980
-3980
-3980
-3960
-3970
-3940
-3930
-3920
-3900
-3910
-3880
-3870
-3860
-3840
-3820
-3790
-3760
-3740
-3700
-3690
-3660
-3620
-3600
-3560
-3540
-3500
-3480
-3450
-3440
-3430
-3400
-3380
-3370
-3340
-3340
-3310
-3320
-3300
-3290
-3300
-3280
-3300
-3290
-3310
-3320
-3320
-3340
-3340
-3350
-3380
-3370
-3400
-3420
-3450
-3470
-3500
-3530
-3550
-3570
-3610
-3630
-3670
-3690
-3720
-3760
-3770
-3800
-3830
-3850
-3870
-3880
-3910
-3910
-3930
-3950
-3950
-3980
-3970
-3980
-3990
-3980
-3990
-3980
-3990
-3980
-3960
-3970
-3930
-3950
-3910
-3890
-3870
-3840
-3830
-3810
-3770
-3760
-3720
-3710
-3680
-3650
-3630
-3590
-3570
-3540
-3510
-3500
-3470
-3450
-3430
-3410
-3390
-3370
-3360
-3330
-3330
-3330
-3310
-3310
-3300
-3300
-3300
-3300
-3320
-3310
-3330
-3330
-3330
-3360
-3370
-3380
-3420
-3430
-3460
-3460
-3510
-3520
-3550
-3590
-3590
-3640
-3660
-3700
-3720
-3750
-3780
-3800
-3820
-3860
-3860
-3900
-3910
-3920
-3940
-3960
-3970
-3980
-3990
-4000
-3980
-3990
-3970
-3960
-3980
-3940
-3960
-3940
-3950
-3930
-3900
-3890
-3860
-3840
-3830
-3800
-3790
-3770
-3760
-3730
-3690
-3650
-3630
-3590
-3560
-3540
-3510
-3480
-3470
-3450
-3420
-3410
-3390
-3370
-3350
-3330
-3330
-3310
-3310
-3310
-3290
-3310
-3290
-3320
-3310
-3320
-3320
-3330
-3350
-3350
-3370
-3400
-3410
-3440
-3460
-3480
-3520
-3530
-3570
-3580
-3610
-3650
-3660
-3710
-3720
-3750
-3800
-3810
-3850
-3860
-3880
-3900
-3910
-3940
-3940
-3960
-3970
-3970
-3990
-3980
-4000
-4000
-3990
-3990
-3970
-3970
-3970
-3950
-3940
-3920
-3910
-3890
-3860
-3850
-3830
-3800
-3790
-3750
-3740
-3700
-3690
-3640
-3620
-3590
-3550
-3530
-3480
-3470
-3450
-3410
-3410
-3380
-3370
-3370
-3330
-3330
-3320
-3300
-3320
-3310
-3330
-3320
-3330
-3360
-3330
-3360
-3350
-3360
-3380
-3370
-3400
-3400
-3430
-3450
-3460
-3500
-3500
-3540
-3570
-3580
-3620
-3640
-3680
-3710
-3730
-3770
-3780
-3820
-3840
-3850
-3890
-3900
-3920
-3930
-3940
-3950
-3960
-3990
-3990
-3990
-4010
-4000
-4000
-3990
-3990
-3990
-3970
-3970
-3950
-3930
-3920
-3890
-3880
-3850
-3830
-3820
-3780
-3760
-3730
-3710
-3680
-3640
-3630
-3580
-3560
-3530
-3490
-3490
-3440
-3440
-3410
-3390
-3380
-3360
-3360
-3340
-3330
-3330
-3310
-3320
-3310
-3310
-3320
-3300
-3330
-3320
-3320
-3340
-3330
-3370
-3380
-3380
-3410
-3420
-3460
-3470
-3500
-3530
-3540
-3580
-3600
-3640
-3680
-3710
-3760
-3770
-3800
-3830
-3840
-3870
-3880
-3910
-3920
-3950
-3960
-3970
-3980
-3990
-3990
-4010
-4010
-4010
-4010
-3990
-4000
-3980
-3980
-3990
-3960
-3960
-3930
-3920
-3900
-3870
-3860
-3830
-3800
-3780
-3760
-3730
-3700
-3680
-3650
-3620
-3590
-3560
-3540
-3490
-3480
-3470
-3430
-3430
-3410
-3380
-3380
-3360
-3350
-3340
-3330
-3320
-3320
-3330
-3320
-3330
-3330
-3330
-3350
-3360
-3380
-3400
-3400
-3430
-3440
-3460
-3490
-3510
-3550
-3560
-3590
-3620
-3640
-3660
-3690
-3730
-3760
-3780
-3820
-3830
-3870
-3890
-3900
-3940
-3930
-3960
-3970
-3990
-4000
-4010
-4020
-4030
-4030
-4040
-4020
-4010
-4020
-3990
-3990
-3970
-3980
-3950
-3940
-3920
-3910
-3900
-3860
-3850
-3820
-3790
-3780
-3730
-3700
-3670
-3640
-3630
-3590
-3570
-3540
-3510
-3500
-3460
-3450
-3440
-3410
-3410
-3370
-3370
-3360
-3340
-3350
-3330
-3330
-3330
-3330
-3340
-3330
-3350
-3350
-3360
-3370
-3380
-3400
-3420
-3430
-3460
-3470
-3510
-3520
-3560
-3570
-3600
-3640
-3660
-3700
-3720
-3760
-3790
-3810
-3830
-3860
-3880
-3910
-3910
-3940
-3960
-3970
-3990
-4000
-4000
-4020
-4010
-4030
-4020
-4020
-4020
-4000
-4020
-4000
-3980
-3980
-3960
-3950
-3920
-3900
-3890
-3860
-3850
-3810
-3800
-3770
-3730
-3710
-3660
-3640
-3610
-3580
-3560
-3530
-3520
-3490
-3460
-3460
-3410
-3420
-3380
-3360
-3350
-3330
-3340
-3310
-3310
-3320
-3310
-3320
-3320
-3330
-3330
-3330
-3360
-3350
-3380
-3390
-3410
-3440
-3450
-3490
-3500
-3520
-3550
-3560
-3600
-3620
-3650
-3700
-3710
-3750
-3770
-3790
-3830
-3860
-3900
-3920
-3940
-3960
-3960
-4000
-3980
-4000
-4020
-4020
-4020
-4030
-4030
-4040
-4010
-4030
-4000
-4000
-3990
-3980
-3970
-3950
-3930
-3920
-3880
-3870
-3840
-3820
-3790
-3770
-3730
-3700
-3670
-3650
-3610
-3590
-3550
-3530
-3520
-3480
-3460
-3430
-3420
-3400
-3380
-3380
-3350
-3350
-3330
-3330
-3320
-3310
-3320
-3310
-3330
-3340
-3340
-3360
-3360
-3370
-3390
-3390
-3410
-3430
-3460
-3490
-3500
-3530
-3550
-3580
-3610
-3630
-3690
-3690
-3730
-3760
-3790
-3830
-3840
-3870
-3890
-3910
-3940
-3940
-3970
-3980
-3990
-4010
-4010
-4020
-4030
-4030
-4040
-4040
-4030
-4030
-4010
-4010
-3990
-3980
-3970
-3950
-3940
-3910
-3900
-3870
-3850
-3830
-3800
-3780
-3760
-3710
-3690
-3650
-3630
-3600
-3570
-3550
-3510
-3500
-3470
-3460
-3430
-3400
-3400
-3380
-3360
-3360
-3340
-3350
-3330
-3330
-3340
-3330
-3360
-3340
-3360
-3360
-3370
-3380
-3400
-3410
-3440
-3430
-3480
-3490
-3510
-3550
-3560
-3610
-3620
-3660
-3690
-3710
-3740
-3770
-3810
-3830
-3850
-3880
-3890
-3930
-3950
-3950
-3990
-3990
-4020
-4010
-4030
-4040
-4040
-4040
-4040
-4040
-4040
-4030
-4040
-4010
-4010
-4000
-3970
-3970
-3940
-3920
-3910
-3880
-3860
-3830
-3820
-3790
-3760
-3730
-3690
-3670
-3640
-3610
-3590
-3550
-3530
-3510
-3480
-3460
-3440
-3430
-3420
-3400
-3400
-3360
-3380
-3350
-3340
-3350
-3330
-3350
-3350
-3360
-3360
-3380
-3390
-3390
-3410
-3430
-3440
-3480
-3490
-3520
-3540
-3560
-3590
-3610
-3650
-3670
-3700
-3750
-3770
-3800
-3820
-3840
-3870
-3880
-3920
-3930
-3950
-3980
-3970
-4000
-4010
-4030
-4050
-4050
-4070
-4080
-4080
-4090
-4080
-4080
-4060
-4040
-4040
-4010
-4010
-4000
-3970
-3950
-3930
-3910
-3890
-3850
-3830
-3800
-3780
-3750
-3710
-3690
-3660
-3630
-3600
-3580
-3550
-3520
-3510
-3480
-3460
-3450
-3420
-3420
-3390
-3390
-3380
-3360
-3370
-3350
-3360
-3360
-3350
-3370
-3380
-3400
-3400
-3410
-3430
-3440
-3460
-3480
-3500
-3540
-3540
-3580
-3600
-3620
-3660
-3680
-3720
-3730
-3770
-3810
-3820
-3860
-3880
-3910
-3940
-3950
-3980
-3990
-4000
-4020
-4030
-4060
-4060
-4080
-4090
-4080
-4090
-4080
-4080
-4080
-4060
-4060
-4030
-4040
-4020
-4010
-4000
-3970
-3950
-3940
-3910
-3880
-3850
-3830
-3800
-3760
-3750
-3700
-3690
-3650
-3610
-3590
-3550
-3540
-3510
-3490
-3470
-3450
-3450
-3420
-3430
-3410
-3410
-3400
-3390
-3390
-3390
-3390
-3400
-3400
-3400
-3420
-3420
-3450
-3430
-3460
-3480
-3490
-3530
-3530
-3580
-3600
-3620
-3650
-3670
-3710
-3740
-3770
-3800
-3830
-3860
-3890
-3910
-3940
-3960
-3980
-4000
-4020
-4050
-4040
-4080
-4090
-4090
-4110
-4100
-4110
-4100
-4100
-4110
-4090
-4110
-4090
-4080
-4080
-4040
-4030
-4010
-3980
-3980
-3940
-3930
-3890
-3870
-3840
-3810
-3780
-3750
-3720
-3690
-3650
-3640
-3600
-3590
-3580
-3550
-3550
-3520
-3500
-3480
-3460
-3450
-3430
-3430
-3400
-3410
-3400
-3380
-3410
-3390
-3410
-3420
-3420
-3440
-3440
-3460
-3480
-3490
-3530
-3530
-3560
-3580
-3600
-3640
-3660
-3690
-3720
-3740
-3780
-3800
-3830
-3880
-3900
-3940
-3960
-3990
-4010
-4020
-4060
-4070
-4100
-4100
-4120
-4140
-4140
-4160
-4160
-4160
-4160
-4140
-4150
-4140
-4120
-4110
-4090
-4080
-4060
-4050
-4030
-3990
-3990
-3950
-3920
-3910
-3870
-3840
-3820
-3780
-3770
-3730
-3710
-3670
-3650
-3610
-3580
-3580
-3540
-3530
-3510
-3490
-3490
-3460
-3460
-3460
-3430
-3440
-3420
-3430
-3430
-3440
-3440
-3450
-3460
-3480
-3490
-3510
-3510
-3540
-3560
-3580
-3610
-3630
-3660
-3680
-3710
-3740
-3760
-3800
-3830
-3850
-3900
-3910
-3940
-3970
-3990
-4020
-4030
-4060
-4080
-4090
-4120
-4130
-4140
-4160
-4150
-4170
-4160
-4180
-4160
-4150
-4150
-4130
-4150
-4130
-4120
-4110
-4090
-4070
-4050
-4020
-4010
-3970
-3950
-3920
-3900
-3880
-3840
-3830
-3770
-3760
-3720
-3700
-3680
-3640
-3620
-3590
-3570
-3570
-3530
-3530
-3510
-3480
-3490
-3470
-3480
-3460
-3450
-3460
-3450
-3470
-3470
-3480
-3500
-3500
-3540
-3540
-3550
-3580
-3580
-3620
-3640
-3660
-3690
-3710
-3750
-3760
-3800
-3830
-3850
-3900
-3920
-3960
-3980
-4000
-4040
-4050
-4080
-4110
-4110
-4130
-4150
-4160
-4180
-4180
-4190
-4180
-4190
-4200
-4190
-4190
-4180
-4180
-4170
-4160
-4150
-4130
-4130
-4090
-4080
-4070
-4020
-4010
-3980
-3960
-3940
-3900
-3880
-3830
-3820
-3790
-3740
-3730
-3690
-3660
-3650
-3610
-3610
-3560
-3560
-3540
-3520
-3520
-3510
-3520
-3510
-3500
-3510
-3490
-3500
-3500
-3490
-3520
-3520
-3540
-3540
-3570
-3590
-3600
-3640
-3640
-3670
-3710
-3720
-3770
-3790
-3810
-3840
-3870
-3900
-3940
-3960
-3990
-4010
-4040
-4060
-4090
-4120
-4130
-4160
-4160
-4190
-4200
-4220
-4240
-4230
-4250
-4240
-4240
-4240
-4220
-4230
-4210
-4210
-4200
-4180
-4170
-4150
-4130
-4120
-4090
-4060
-4050
-4020
-3990
-3960
-3940
-3910
-3870
-3850
-3810
-3780
-3760
-3730
-3710
-3680
-3660
-3640
-3610
-3600
-3590
-3580
-3560
-3540
-3540
-3530
-3520
-3520
-3530
-3520
-3530
-3540
-3560
-3560
-3590
-3590
-3630
-3630
-3650
-3670
-3680
-3720
-3740
-3770
-3800
-3820
-3860
-3880
-3910
-3950
-3970
-4010
-4030
-4060
-4080
-4100
-4150
-4140
-4170
-4190
-4200
-4230
-4240
-4260
-4270
-4270
-4290
-4280
-4270
-4270
-4260
-4260
-4240
-4250
-4230
-4210
-4210
-4170
-4190
-4150
-4130
-4110
-4070
-4060
-4010
-4000
-3970
-3930
-3920
-3880
-3850
-3830
-3800
-3780
-3750
-3730
-3700
-3680
-3670
-3630
-3630
-3620
-3590
-3590
-3570
-3570
-3570
-3560
-3580
-3570
-3580
-3590
-3590
-3610
-3620
-3630
-3660
-3660
-3690
-3720
-3730
-3770
-3780
-3820
-3840
-3860
-3890
-3920
-3950
-3980
-4010
-4050
-4070
-4100
-4120
-4150
-4170
-4190
-4210
-4230
-4260
-4260
-4270
-4300
-4300
-4310
-4310
-4310
-4320
-4300
-4310
-4300
-4290
-4300
-4270
-4270
-4240
-4230
-4220
-4180
-4180
-4150
-4120
-4100
-4060
-4030
-4010
-3980
-3950
-3920
-3890
-3860
-3830
-3810
-3780
-3760
-3740
-3730
-3680
-3680
-3670
-3640
-3650
-3630
-3610
-3620
-3600
-3620
-3610
-3610
-3630
-3620
-3630
-3660
-3660
-3680
-3690
-3710
-3710
-3740
-3760
-3780
-3820
-3830
-3860
-3880
-3920
-3960
-3980
-4030
-4070
-4100
-4140
-4150
-4180
-4200
-4220
-4250
-4260
-4290
-4300
-4310
-4330
-4320
-4340
-4360
-4350
-4360
-4360
-4370
-4350
-4350
-4350
-4320
-4320
-4310
-4290
-4290
-4250
-4230
-4210
-4180
-4160
-4130
-4110
-4080
-4040
-4030
-3980
-3960
-3920
-3880
-3870
-3820
-3820
-3780
-3760
-3750
-3730
-3720
-3700
-3700
-3680
-3670
-3670
-3660
-3660
-3650
-3640
-3660
-3650
-3670
-3670
-3680
-3700
-3700
-3730
-3730
-3750
-3790
-3800
-3830
-3860
-3880
-3920
-3940
-3980
-4010
-4050
-4080
-4110
-4150
-4160
-4210
-4220
-4240
-4270
-4290
-4300
-4330
-4330
-4360
-4380
-4380
-4390
-4390
-4400
-4390
-4390
-4410
-4390
-4400
-4380
-4390
-4360
-4350
-4340
-4310
-4300
-4290
-4260
-4240
-4200
-4190
-4170
-4130
-4120
-4080
-4050
-4020
-3980
-3970
-3940
-3900
-3880
-3850
-3830
-3800
-3780
-3780
-3760
-3740
-3730
-3700
-3700
-3690
-3700
-3690
-3690
-3700
-3700
-3720
-3710
-3730
-3740
-3750
-3770
-3760
-3800
-3810
-3840
-3880
-3910
-3960
-3980
-4020
-4040
-4060
-4100
-4100
-4140
-4170
-4190
-4230
-4260
-4290
-4310
-4340
-4360
-4380
-4400
-4400
-4420
-4430
-4430
-4440
-4450
-4460
-4460
-4450
-4450
-4430
-4420
-4420
-4390
-4390
-4370
-4340
-4330
-4300
-4280
-4250
-4230
-4220
-4180
-4160
-4130
-4110
-4070
-4030
-4010
-3980
-3960
-3920
-3900
-3890
-3850
-3840
-3820
-3800
-3790
-3770
-3770
-3760
-3740
-3750
-3730
-3740
-3750
-3750
-3770
-3760
-3780
-3800
-3790
-3810
-3820
-3840
-3860
-3870
-3900
-3910
-3950
-3980
-4000
-4040
-4070
-4110
-4130
-4170
-4210
-4230
-4270
-4290
-4310
-4350
-4340
-4390
-4390
-4410
-4440
-4440
-4480
-4470
-4490
-4500
-4490
-4520
-4490
-4500
-4500
-4480
-4490
-4460
-4450
-4440
-4420
-4410
-4390
-4360
-4350
-4320
-4290
-4270
-4240
-4210
-4180
-4160
-4120
-4100
-4060
-4020
-4020
-3960
-3950
-3920
-3910
-3890
-3860
-3860
-3830
-3810
-3800
-3780
-3780
-3780
-3780
-3790
-3780
-3790
-3800
-3790
-3810
-3810
-3840
-3830
-3860
-3900
-3910
-3960
-3970
-3990
-4020
-4040
-4070
-4090
-4110
-4160
-4170
-4220
-4240
-4270
-4300
-4320
-4370
-4380
-4410
-4440
-4440
-4470
-4480
-4510
-4510
-4520
-4540
-4530
-4540
-4540
-4540
-4540
-4530
-4530
-4510
-4500
-4490
-4470
-4460
-4450
-4430
-4430
-4400
-4390
-4350
-4320
-4310
-4260
-4250
-4210
-4190
-4150
-4110
-4080
-4060
-4030
-4010
-3970
-3970
-3940
-3910
-3900
-3890
-3870
-3860
-3850
-3850
-3830
-3830
-3820
-3830
-3830
-3840
-3840
-3850
-3870
-3900
-3910
-3930
-3940
-3980
-3990
-4000
-4030
-4040
-4090
-4110
-4140
-4170
-4190
-4230
-4260
-4290
-4340
-4350
-4390
-4410
-4430
-4450
-4460
-4510
-4510
-4530
-4550
-4550
-4570
-4570
-4590
-4590
-4590
-4610
-4590
-4590
-4590
-4560
-4580
-4550
-4530
-4530
-4500
-4490
-4460
-4430
-4420
-4390
-4360
-4340
-4310
-4290
-4250
-4230
-4190
-4160
-4130
-4090
-4070
-4030
-4020
-3980
-3980
-3950
-3920
-3910
-3900
-3880
-3870
-3870
-3870
-3870
-3870
-3880
-3870
-3890
-3890
-3900
-3920
-3920
-3940
-3950
-3960
-3990
-4000
-4050
-4070
-4110
-4150
-4170
-4210
-4240
-4270
-4290
-4320
-4360
-4380
-4410
-4440
-4460
-4500
-4510
-4520
-4560
-4560
-4590
-4590
-4620
-4630
-4630
-4650
-4640
-4670
-4660
-4650
-4650
-4640
-4640
-4620
-4600
-4610
-4570
-4560
-4550
-4500
-4500
-4460
-4440
-4410
-4390
-4360
-4320
-4300
-4260
-4230
-4210
-4170
-4150
-4120
-4090
-4080
-4030
-4030
-3980
-3970
-3970
-3940
-3930
-3910
-3900
-3910
-3900
-3910
-3920
-3930
-3950
-3940
-3970
-3970
-3990
-4000
-4000
-4040
-4060
-4090
-4110
-4130
-4160
-4180
-4220
-4240
-4270
-4310
-4330
-4380
-4390
-4430
-4460
-4480
-4520
-4540
-4560
-4580
-4590
-4630
-4640
-4650
-4680
-4660
-4680
-4680
-4700
-4690
-4700
-4710
-4710
-4700
-4690
-4670
-4670
-4640
-4620
-4610
-4580
-4570
-4530
-4510
-4490
-4460
-4440
-4400
-4380
-4340
-4310
-4290
-4250
-4230
-4200
-4180
-4150
-4120
-4110
-4080
-4070
-4050
-4020
-4020
-4010
-3990
-3990
1910.0
1880.0
1850.0
1810.0
1790.0
1750.0
1730.0
1720.0
1700.0
1700.0
1690.0
1690.0
1690.0
1690.0
1690.0
1690.0
1690.0
1700.0
1710.0
1720.0
1730.0
1740.0
1770.0
1780.0
1800.0
1840.0
1860.0
1890.0
1930.0
1950.0
1990.0
2000.0
2030.0
2070.0
2110.0
2130.0
2190.0
2190.0
2220.0
2250.0
2280.0
2300.0
2320.0
2340.0
2360.0
2370.0
2410.0
2400.0
2440.0
2450.0
2460.0
2470.0
2490.0
2490.0
2490.0
2490.0
2490.0
2490.0
2490.0
2490.0
2500.0
2490.0
2480.0
2460.0
2450.0
2420.0
2400.0
2370.0
2340.0
2310.0
2290.0
2240.0
2190.0
2170.0
2120.0
2090.0
2050.0
2010.0
1980.0
1940.0
1910.0
1870.0
1840.0
1820.0
1790.0
1780.0
1750.0
1730.0
1710.0
1700.0
1690.0
1680.0
1680.0
1690.0
1690.0
1700.0
1700.0
1700.0
1700.0
1700.0
1710.0
1720.0
1740.0
1760.0
1790.0
1820.0
1840.0
1860.0
1900.0
1930.0
1960.0
1990.0
2020.0
2060.0
2100.0
2140.0
2170.0
2200.0
2230.0
2260.0
2290.0
2310.0
2340.0
2360.0
2380.0
2390.0
2410.0
2410.0
2450.0
2440.0
2460.0
2460.0
2470.0
2470.0
2480.0
2480.0
2490.0
2480.0
2490.0
2480.0
2480.0
2470.0
2460.0
2460.0
2440.0
2430.0
2420.0
2390.0
2360.0
2340.0
2300.0
2270.0
2230.0
2180.0
2140.0
2100.0
2060.0
2020.0
1980.0
1940.0
1910.0
1880.0
1850.0
1830.0
1810.0
1790.0
1770.0
1750.0
1730.0
1700.0
1700.0
1680.0
1690.0
1670.0
1670.0
1670.0
1670.0
1680.0
1680.0
1690.0
1710.0
1710.0
1740.0
1760.0
1780.0
1820.0
1840.0
1860.0
1900.0
1920.0
1950.0
1980.0
2010.0
2060.0
2090.0
2130.0
2150.0
2180.0
2220.0
2240.0
2270.0
2310.0
2310.0
2340.0
2360.0
2380.0
2390.0
2420.0
2440.0
2450.0
2470.0
2480.0
2480.0
2470.0
2500.0
2480.0
2490.0
2490.0
2480.0
2500.0
2480.0
2490.0
2470.0
2460.0
2450.0
2430.0
2410.0
2380.0
2350.0
2330.0
2280.0
2260.0
2210.0
2180.0
2150.0
2110.0
2080.0
2040.0
2010.0
1970.0
1930.0
1890.0
1850.0
1810.0
1780.0
1750.0
1740.0
1740.0
1720.0
1720.0
1690.0
1690.0
1670.0
1670.0
1660.0
1670.0
1670.0
1680.0
1680.0
1690.0
1700.0
1720.0
1730.0
1760.0
1780.0
1810.0
1850.0
1870.0
1890.0
1930.0
1950.0
2000.0
2020.0
2060.0
2110.0
2120.0
2170.0
2190.0
2230.0
2250.0
2280.0
2310.0
2310.0
2350.0
2360.0
2390.0
2410.0
2420.0
2440.0
2450.0
2460.0
2480.0
2470.0
2480.0
2500.0
2490.0
2500.0
2500.0
2510.0
2500.0
2500.0
2500.0
2490.0
2480.0
2460.0
2450.0
2420.0
2400.0
2370.0
2340.0
2290.0
2280.0
2230.0
2190.0
2150.0
2110.0
2070.0
2030.0
1990.0
1950.0
1910.0
1890.0
1850.0
1830.0
1810.0
1770.0
1760.0
1730.0
1730.0
1710.0
1700.0
1690.0
1680.0
1670.0
1680.0
1670.0
1680.0
1680.0
1690.0
1690.0
1690.0
1710.0
1720.0
1750.0
1770.0
1800.0
1830.0
1850.0
1880.0
1920.0
1950.0
1980.0
2010.0
2050.0
2090.0
2120.0
2160.0
2180.0
2220.0
2250.0
2270.0
2290.0
2320.0
2340.0
2370.0
2380.0
2400.0
2410.0
2430.0
2440.0
2450.0
2470.0
2470.0
2480.0
2490.0
2500.0
2490.0
2490.0
2490.0
2500.0
2500.0
2490.0
2480.0
2460.0
2450.0
2430.0
2410.0
2390.0
2350.0
2330.0
2280.0
2250.0
2210.0
2180.0
2140.0
2100.0
2050.0
2010.0
1970.0
1940.0
1900.0
1880.0
1850.0
1820.0
1800.0
1770.0
1760.0
1720.0
1720.0
1700.0
1690.0
1700.0
1670.0
1670.0
1670.0
1680.0
1680.0
1700.0
1700.0
1710.0
1730.0
1740.0
1760.0
1780.0
1800.0
1810.0
1840.0
1860.0
1890.0
1920.0
1950.0
1980.0
2030.0
2050.0
2090.0
2130.0
2160.0
2180.0
2200.0
2250.0
2260.0
2290.0
2310.0
2340.0
2360.0
2380.0
2390.0
2420.0
2430.0
2450.0
2450.0
2460.0
2470.0
2470.0
2480.0
2480.0
2490.0
2500.0
2480.0
2510.0
2510.0
2510.0
2500.0
2490.0
2460.0
2440.0
2420.0
2410.0
2360.0
2350.0
2310.0
2280.0
2230.0
2200.0
2150.0
2100.0
2060.0
2020.0
1980.0
1950.0
1900.0
1880.0
1850.0
1820.0
1790.0
1760.0
1740.0
1720.0
1720.0
1720.0
1710.0
1710.0
1710.0
1700.0
1690.0
1690.0
1690.0
1700.0
1700.0
1710.0
1710.0
1720.0
1740.0
1760.0
1780.0
1810.0
1830.0
1860.0
1890.0
1930.0
1950.0
1990.0
2000.0
2050.0
2100.0
2130.0
2170.0
2200.0
2230.0
2260.0
2290.0
2310.0
2330.0
2350.0
2370.0
2390.0
2400.0
2430.0
2430.0
2450.0
2460.0
2480.0
2480.0
2490.0
2500.0
2500.0
2500.0
2510.0
2500.0
2510.0
2500.0
2510.0
2480.0
2480.0
2460.0
2450.0
2430.0
2410.0
2380.0
2360.0
2330.0
2280.0
2250.0
2200.0
2160.0
2130.0
2080.0
2050.0
2010.0
1960.0
1930.0
1890.0
1860.0
1830.0
1800.0
1770.0
1750.0
1740.0
1730.0
1720.0
1720.0
1700.0
1710.0
1700.0
1700.0
1720.0
1720.0
1710.0
1710.0
1710.0
1730.0
1730.0
1740.0
1770.0
1780.0
1810.0
1840.0
1880.0
1910.0
1940.0
1980.0
2010.0
2050.0
2080.0
2120.0
2150.0
2180.0
2210.0
2240.0
2270.0
2310.0
2320.0
2350.0
2370.0
2390.0
2410.0
2420.0
2440.0
2460.0
2460.0
2480.0
2480.0
2490.0
2500.0
2510.0
2520.0
2520.0
2520.0
2530.0
2520.0
2520.0
2510.0
2500.0
2490.0
2480.0
2470.0
2440.0
2420.0
2390.0
2360.0
2330.0
2290.0
2250.0
2210.0
2160.0
2130.0
2080.0
2050.0
2010.0
1970.0
1950.0
1920.0
1890.0
1840.0
1820.0
1790.0
1770.0
1760.0
1740.0
1720.0
1710.0
1710.0
1690.0
1700.0
1690.0
1700.0
1700.0
1710.0
1710.0
1720.0
1720.0
1740.0
1760.0
1790.0
1820.0
1850.0
1880.0
1900.0
1940.0
1960.0
1980.0
2000.0
2040.0
2080.0
2110.0
2160.0
2190.0
2230.0
2260.0
2290.0
2320.0
2340.0
2360.0
2390.0
2400.0
2420.0
2430.0
2430.0
2450.0
2460.0
2470.0
2490.0
2500.0
2510.0
2500.0
2500.0
2510.0
2510.0
2510.0
2520.0
2520.0
2510.0
2500.0
2490.0
2480.0
2470.0
2450.0
2430.0
2410.0
2360.0
2340.0
2300.0
2270.0
2220.0
2170.0
2130.0
2090.0
2050.0
2010.0
1990.0
1950.0
1930.0
1890.0
1880.0
1830.0
1820.0
1790.0
1770.0
1750.0
1730.0
1730.0
1720.0
1700.0
1700.0
1700.0
1700.0
1720.0
1710.0
1710.0
1730.0
1730.0
1750.0
1760.0
1790.0
1810.0
1840.0
1870.0
1890.0
1930.0
1950.0
1980.0
2020.0
2040.0
2080.0
2120.0
2150.0
2190.0
2220.0
2250.0
2280.0
2300.0
2320.0
2350.0
2360.0
2390.0
2400.0
2420.0
2440.0
2450.0
2470.0
2480.0
2490.0
2510.0
2510.0
2520.0
2530.0
2520.0
2530.0
2530.0
2530.0
2530.0
2530.0
2510.0
2520.0
2500.0
2480.0
2460.0
2440.0
2400.0
2380.0
2360.0
2320.0
2290.0
2240.0
2200.0
2160.0
2110.0
2070.0
2020.0
1980.0
1950.0
1910.0
1880.0
1860.0
1830.0
1810.0
1780.0
1770.0
1740.0
1730.0
1720.0
1710.0
1710.0
1710.0
1700.0
1700.0
1700.0
1700.0
1710.0
1720.0
1730.0
1740.0
1750.0
1780.0
1800.0
1830.0
1860.0
1880.0
1910.0
1940.0
1970.0
2010.0
2040.0
2070.0
2110.0
2140.0
2190.0
2210.0
2240.0
2270.0
2280.0
2320.0
2340.0
2370.0
2380.0
2410.0
2430.0
2430.0
2460.0
2460.0
2480.0
2480.0
2490.0
2490.0
2510.0
2510.0
2510.0
2510.0
2510.0
2520.0
2510.0
2510.0
2500.0
2490.0
2480.0
2460.0
2440.0
2400.0
2380.0
2350.0
2310.0
2260.0
2240.0
2190.0
2150.0
2110.0
2070.0
2020.0
1990.0
1960.0
1930.0
1890.0
1870.0
1820.0
1800.0
1780.0
1760.0
1760.0
1740.0
1750.0
1730.0
1730.0
1720.0
1730.0
1720.0
1710.0
1710.0
1700.0
1710.0
1710.0
1730.0
1730.0
1740.0
1750.0
1770.0
1780.0
1820.0
1840.0
1880.0
1910.0
1940.0
1980.0
2020.0
2060.0
2100.0
2130.0
2150.0
2190.0
2220.0
2240.0
2270.0
2290.0
2330.0
2360.0
2370.0
2390.0
2410.0
2420.0
2420.0
2450.0
2460.0
2460.0
2480.0
2500.0
2500.0
2520.0
2520.0
2530.0
2520.0
2520.0
2510.0
2510.0
2490.0
2490.0
2470.0
2450.0
2430.0
2410.0
2380.0
2350.0
2310.0
2280.0
2230.0
2200.0
2160.0
2120.0
2080.0
2050.0
2020.0
1970.0
1940.0
1900.0
1880.0
1850.0
1820.0
1780.0
1760.0
1740.0
1720.0
1710.0
1700.0
1700.0
1700.0
1690.0
1680.0
1690.0
1680.0
1690.0
1680.0
1690.0
1700.0
1700.0
1730.0
1750.0
1770.0
1790.0
1820.0
1850.0
1880.0
1900.0
1930.0
1960.0
2000.0
2040.0
2070.0
2120.0
2150.0
2200.0
2220.0
2260.0
2280.0
2310.0
2320.0
2350.0
2380.0
2380.0
2400.0
2410.0
2420.0
2440.0
2450.0
2450.0
2470.0
2480.0
2490.0
2480.0
2490.0
2490.0
2500.0
2490.0
2490.0
2500.0
2490.0
2480.0
2460.0
2450.0
2430.0
2410.0
2370.0
2350.0
2310.0
2280.0
2240.0
2200.0
2150.0
2110.0
2070.0
2040.0
2010.0
1980.0
1940.0
1910.0
1880.0
1850.0
1830.0
1790.0
1760.0
1740.0
1720.0
1710.0
1690.0
1680.0
1690.0
1670.0
1680.0
1670.0
1680.0
1680.0
1680.0
1680.0
1690.0
1700.0
1710.0
1730.0
1760.0
1780.0
1810.0
1850.0
1870.0
1910.0
1940.0
1970.0
2020.0
2050.0
2090.0
2130.0
2160.0
2190.0
2200.0
2240.0
2260.0
2290.0
2290.0
2340.0
2350.0
2380.0
2390.0
2410.0
2430.0
2440.0
2450.0
2460.0
2460.0
2480.0
2480.0
2480.0
2500.0
2500.0
2490.0
2510.0
2500.0
2500.0
2490.0
2460.0
2460.0
2440.0
2410.0
2380.0
2360.0
2340.0
2290.0
2260.0
2230.0
2180.0
2140.0
2110.0
2080.0
2050.0
2010.0
1990.0
1950.0
1910.0
1880.0
1830.0
1820.0
1790.0
1760.0
1730.0
1720.0
1700.0
1690.0
1690.0
1690.0
1670.0
1670.0
1670.0
1670.0
1680.0
1690.0
1690.0
1700.0
1710.0
1740.0
1770.0
1780.0
1810.0
1830.0
1870.0
1870.0
1910.0
1940.0
1970.0
2010.0
2050.0
2100.0
2140.0
2170.0
2190.0
2220.0
2240.0
2280.0
2300.0
2330.0
2350.0
2370.0
2380.0
2400.0
2410.0
2410.0
2420.0
2420.0
2430.0
2440.0
2440.0
2460.0
2460.0
2460.0
2470.0
2480.0
2480.0
2490.0
2500.0
2510.0
2480.0
2470.0
2450.0
2430.0
2400.0
2400.0
2350.0
2330.0
2290.0
2250.0
2200.0
2170.0
2120.0
2070.0
2040.0
1990.0
1970.0
1920.0
1900.0
1880.0
1840.0
1810.0
1790.0
1760.0
1740.0
1720.0
1710.0
1700.0
1690.0
1680.0
1670.0
1670.0
1670.0
1680.0
1690.0
1680.0
1700.0
1700.0
1700.0
1730.0
1740.0
1770.0
1780.0
1800.0
1850.0
1870.0
1910.0
1930.0
1970.0
2010.0
2030.0
2080.0
2110.0
2150.0
2180.0
2210.0
2240.0
2270.0
2290.0
2330.0
2330.0
2370.0
2380.0
2400.0
2410.0
2430.0
2440.0
2450.0
2460.0
2470.0
2480.0
2480.0
2500.0
2500.0
2510.0
2510.0
2510.0
2520.0
2500.0
2490.0
2470.0
2460.0
2430.0
2400.0
2380.0
2360.0
2330.0
2310.0
2270.0
2240.0
2190.0
2150.0
2110.0
2080.0
2040.0
2010.0
1960.0
1940.0
1890.0
1870.0
1840.0
1810.0
1780.0
1760.0
1730.0
1730.0
1720.0
1700.0
1680.0
1680.0
1660.0
1670.0
1670.0
1670.0
1680.0
1680.0
1680.0
1690.0
1690.0
1720.0
1740.0
1750.0
1780.0
1800.0
1830.0
1860.0
1880.0
1930.0
1950.0
1990.0
2010.0
2050.0
2090.0
2140.0
2160.0
2200.0
2210.0
2260.0
2280.0
2310.0
2330.0
2350.0
2370.0
2390.0
2390.0
2410.0
2420.0
2440.0
2440.0
2450.0
2460.0
2460.0
2470.0
2460.0
2490.0
2490.0
2490.0
2500.0
2490.0
2480.0
2480.0
2460.0
2450.0
2420.0
2400.0
2370.0
2340.0
2300.0
2260.0
2220.0
2180.0
2130.0
2100.0
2070.0
2030.0
2010.0
1970.0
1940.0
1900.0
1870.0
1840.0
1800.0
1780.0
1750.0
1730.0
1710.0
1690.0
1680.0
1670.0
1670.0
1670.0
1660.0
1660.0
1670.0
1660.0
1670.0
1660.0
1680.0
1690.0
1720.0
1730.0
1770.0
1790.0
1820.0
1840.0
1870.0
1890.0
1930.0
1960.0
1990.0
2020.0
2070.0
2100.0
2130.0
2150.0
2190.0
2230.0
2240.0
2280.0
2300.0
2330.0
2340.0
2360.0
2380.0
2390.0
2410.0
2430.0
2430.0
2440.0
2440.0
2450.0
2460.0
2470.0
2470.0
2480.0
2480.0
2480.0
2480.0
2480.0
2460.0
2460.0
2430.0
2430.0
2390.0
2380.0
2350.0
2340.0
2300.0
2280.0
2240.0
2210.0
2160.0
2110.0
2090.0
2040.0
2000.0
1970.0
1940.0
1900.0
1870.0
1830.0
1800.0
1770.0
1750.0
1710.0
1710.0
1690.0
1670.0
1690.0
1670.0
1670.0
1660.0
1660.0
1660.0
1660.0
1670.0
1680.0
1690.0
1690.0
1710.0
1730.0
1750.0
1770.0
1800.0
1830.0
1850.0
1880.0
1920.0
1950.0
1980.0
2000.0
2040.0
2080.0
2110.0
2150.0
2190.0
2210.0
2250.0
2270.0
2290.0
2310.0
2330.0
2350.0
2360.0
2380.0
2380.0
2400.0
2410.0
2430.0
2440.0
2460.0
2460.0
2480.0
2490.0
2480.0
2480.0
2480.0
2480.0
2470.0
2470.0
2450.0
2440.0
2430.0
2420.0
2400.0
2370.0
2350.0
2330.0
2290.0
2260.0
2220.0
2160.0
2120.0
2070.0
2000.0
1970.0
1930.0
1900.0
1880.0
1840.0
1800.0
1760.0
1730.0
1710.0
1680.0
1680.0
1680.0
1670.0
1680.0
1670.0
1680.0
1670.0
1680.0
1670.0
1670.0
1680.0
1680.0
1680.0
1680.0
1700.0
1730.0
1740.0
1770.0
1790.0
1830.0
1850.0
1880.0
1920.0
1940.0
1980.0
2010.0
2040.0
2080.0
2120.0
2140.0
2180.0
2200.0
2230.0
2270.0
2300.0
2330.0
2350.0
2370.0
2380.0
2390.0
2420.0
2410.0
2430.0
2440.0
2450.0
2460.0
2460.0
2460.0
2470.0
2470.0
2470.0
2480.0
2480.0
2480.0
2470.0
2460.0
2450.0
2440.0
2410.0
2390.0
2370.0
2330.0
2290.0
2270.0
2220.0
2180.0
2140.0
2090.0
2060.0
2020.0
1980.0
1950.0
1910.0
1880.0
1850.0
1820.0
1790.0
1770.0
1740.0
1720.0
1710.0
1690.0
1670.0
1670.0
1660.0
1650.0
1650.0
1650.0
1660.0
1660.0
1660.0
1680.0
1670.0
1680.0
1700.0
1710.0
1730.0
1760.0
1780.0
1820.0
1830.0
1870.0
1910.0
1920.0
1980.0
2010.0
2040.0
2080.0
2120.0
2150.0
2180.0
2210.0
2240.0
2260.0
2280.0
2300.0
2320.0
2330.0
2360.0
2370.0
2410.0
2410.0
2430.0
2430.0
2440.0
2450.0
2440.0
2460.0
2460.0
2470.0
2470.0
2460.0
2480.0
2470.0
2460.0
2450.0
2440.0
2420.0
2410.0
2380.0
2350.0
2320.0
2290.0
2250.0
2220.0
2170.0
2150.0
2100.0
2050.0
2020.0
1980.0
1950.0
1910.0
1880.0
1850.0
1800.0
1790.0
1750.0
1730.0
1710.0
1680.0
1680.0
1660.0
1660.0
1670.0
1660.0
1650.0
1650.0
1650.0
1650.0
1640.0
1650.0
1650.0
1660.0
1680.0
1710.0
1720.0
1750.0
1780.0
1800.0
1830.0
1860.0
1890.0
1920.0
1950.0
1980.0
2030.0
2080.0
2100.0
2160.0
2180.0
2210.0
2220.0
2240.0
2270.0
2290.0
2320.0
2330.0
2360.0
2370.0
2390.0
2400.0
2410.0
2410.0
2440.0
2430.0
2450.0
2440.0
2440.0
2460.0
2450.0
2460.0
2470.0
2470.0
2470.0
2460.0
2440.0
2420.0
2410.0
2370.0
2340.0
2300.0
2270.0
2240.0
2200.0
2150.0
2120.0
2080.0
2050.0
2000.0
1970.0
1940.0
1900.0
1870.0
1840.0
1810.0
1790.0
1760.0
1730.0
1720.0
1700.0
1670.0
1660.0
1650.0
1640.0
1640.0
1640.0
1640.0
1640.0
1630.0
1630.0
1630.0
1640.0
1640.0
1680.0
1680.0
1720.0
1740.0
1780.0
1810.0
1830.0
1870.0
1900.0
1920.0
1950.0
1990.0
2020.0
2060.0
2090.0
2130.0
2150.0
2190.0
2210.0
2230.0
2260.0
2280.0
2310.0
2340.0
2350.0
2360.0
2380.0
2390.0
2410.0
2410.0
2430.0
2430.0
2450.0
2460.0
2450.0
2460.0
2460.0
2450.0
2450.0
2450.0
2430.0
2410.0
2400.0
2390.0
2380.0
2360.0
2350.0
2330.0
2290.0
2260.0
2210.0
2170.0
2130.0
2100.0
2040.0
2010.0
1980.0
1940.0
1910.0
1860.0
1840.0
1810.0
1780.0
1750.0
1730.0
1700.0
1690.0
1670.0
1650.0
1650.0
1640.0
1630.0
1640.0
1630.0
1630.0
1640.0
1650.0
1650.0
1660.0
1660.0
1680.0
1690.0
1720.0
1730.0
1750.0
1790.0
1820.0
1850.0
1870.0
1910.0
1950.0
1980.0
2010.0
2050.0
2090.0
2120.0
2140.0
2170.0
2200.0
2220.0
2250.0
2260.0
2300.0
2320.0
2340.0
2360.0
2380.0
2380.0
2400.0
2410.0
2410.0
2430.0
2430.0
2440.0
2440.0
2450.0
2450.0
2440.0
2450.0
2450.0
2440.0
2440.0
2420.0
2410.0
2390.0
2360.0
2340.0
2300.0
2270.0
2240.0
2200.0
2160.0
2110.0
2090.0
2040.0
2000.0
1960.0
1930.0
1880.0
1860.0
1820.0
1800.0
1760.0
1750.0
1720.0
1700.0
1690.0
1660.0
1650.0
1650.0
1630.0
1630.0
1620.0
1630.0
1630.0
1630.0
1630.0
1630.0
1640.0
1650.0
1680.0
1680.0
1700.0
1720.0
1740.0
1780.0
1790.0
1830.0
1850.0
1900.0
1920.0
1950.0
2000.0
2040.0
2070.0
2120.0
2150.0
2180.0
2210.0
2230.0
2260.0
2280.0
2300.0
2320.0
2350.0
2360.0
2380.0
2390.0
2390.0
2410.0
2420.0
2420.0
2430.0
2430.0
2440.0
2450.0
2440.0
2430.0
2450.0
2440.0
2430.0
2420.0
2410.0
2390.0
2380.0
2370.0
2340.0
2300.0
2260.0
2220.0
2170.0
2140.0
2090.0
2050.0
2030.0
1990.0
1960.0
1940.0
1900.0
1860.0
1830.0
1800.0
1770.0
1750.0
1710.0
1700.0
1670.0
1650.0
1640.0
1630.0
1630.0
1620.0
1600.0
1610.0
1620.0
1600.0
1620.0
1620.0
1640.0
1620.0
1650.0
1680.0
1700.0
1720.0
1750.0
1780.0
1810.0
1820.0
1870.0
1900.0
1930.0
1960.0
1990.0
2030.0
2050.0
2090.0
2130.0
2150.0
2190.0
2220.0
2260.0
2290.0
2310.0
2330.0
2330.0
2350.0
2370.0
2370.0
2390.0
2390.0
2410.0
2420.0
2430.0
2430.0
2440.0
2440.0
2450.0
2440.0
2440.0
2440.0
2430.0
2430.0
2410.0
2390.0
2380.0
2360.0
2330.0
2310.0
2270.0
2230.0
2200.0
2150.0
2110.0
2080.0
2030.0
2000.0
1960.0
1940.0
1890.0
1870.0
1830.0
1800.0
1770.0
1730.0
1720.0
1680.0
1680.0
1660.0
1640.0
1640.0
1630.0
1630.0
1630.0
1610.0
1630.0
1620.0
1630.0
1620.0
1630.0
1640.0
1660.0
1680.0
1690.0
1720.0
1750.0
1780.0
1800.0
1840.0
1870.0
1910.0
1930.0
1960.0
1990.0
2030.0
2070.0
2100.0
2130.0
2170.0
2190.0
2220.0
2240.0
2270.0
2280.0
2310.0
2320.0
2330.0
2360.0
2360.0
2390.0
2390.0
2420.0
2430.0
2440.0
2440.0
2450.0
2440.0
2430.0
2440.0
2450.0
2440.0
2440.0
2410.0
2420.0
2390.0
2380.0
2350.0
2330.0
2310.0
2270.0
2250.0
2210.0
2180.0
2120.0
2090.0
2040.0
1990.0
1960.0
1920.0
1890.0
1850.0
1830.0
1790.0
1760.0
1740.0
1710.0
1690.0
1670.0
1670.0
1650.0
1650.0
1640.0
1630.0
1630.0
1630.0
1620.0
1620.0
1630.0
1640.0
1630.0
1670.0
1670.0
1700.0
1720.0
1730.0
1770.0
1790.0
1820.0
1850.0
1880.0
1910.0
1940.0
1980.0
2000.0
2040.0
2080.0
2100.0
2140.0
2160.0
2190.0
2210.0
2250.0
2270.0
2300.0
2320.0
2350.0
2360.0
2360.0
2390.0
2390.0
2400.0
2420.0
2420.0
2420.0
2430.0
2420.0
2430.0
2430.0
2440.0
2440.0
2440.0
2430.0
2430.0
2410.0
2400.0
2380.0
2360.0
2330.0
2320.0
2290.0
2260.0
2220.0
2180.0
2140.0
2100.0
2070.0
2020.0
1970.0
1940.0
1900.0
1850.0
1820.0
1790.0
1760.0
1740.0
1710.0
1700.0
1690.0
1660.0
1660.0
1640.0
1640.0
1630.0
1630.0
1630.0
1630.0
1640.0
1640.0
1640.0
1640.0
1660.0
1690.0
1690.0
1720.0
1740.0
1770.0
1800.0
1810.0
1840.0
1870.0
1920.0
1950.0
1970.0
2020.0
2050.0
2080.0
2120.0
2150.0
2180.0
2210.0
2230.0
2260.0
2280.0
2300.0
2320.0
2340.0
2350.0
2370.0
2390.0
2390.0
2410.0
2410.0
2420.0
2430.0
2440.0
2440.0
2450.0
2440.0
2440.0
2430.0
2450.0
2430.0
2430.0
2420.0
2390.0
2390.0
2350.0
2330.0
2310.0
2270.0
2240.0
2200.0
2170.0
2120.0
2080.0
2040.0
2000.0
1960.0
1940.0
1900.0
1870.0
1840.0
1810.0
1780.0
1750.0
1730.0
1700.0
1690.0
1670.0
1660.0
1640.0
1640.0
1630.0
1630.0
1620.0
1610.0
1620.0
1620.0
1650.0
1650.0
1680.0
1700.0
1720.0
1740.0
1750.0
1780.0
1790.0
1820.0
1830.0
1880.0
1900.0
1950.0
1980.0
2010.0
2040.0
2080.0
2110.0
2130.0
2170.0
2200.0
2230.0
2260.0
2280.0
2320.0
2340.0
2360.0
2370.0
2380.0
2380.0
2400.0
2390.0
2420.0
2420.0
2440.0
2440.0
2450.0
2450.0
2440.0
2460.0
2450.0
2450.0
2440.0
2430.0
2410.0
2390.0
2370.0
2340.0
2320.0
2320.0
2290.0
2270.0
2230.0
2190.0
2150.0
2100.0
2070.0
2020.0
1980.0
1940.0
1910.0
1870.0
1840.0
1810.0
1780.0
1750.0
1720.0
1690.0
1670.0
1660.0
1670.0
1650.0
1640.0
1630.0
1630.0
1630.0
1620.0
1630.0
1630.0
1640.0
1640.0
1660.0
1660.0
1700.0
1710.0
1730.0
1760.0
1790.0
1800.0
1830.0
1870.0
1900.0
1930.0
1970.0
2000.0
2040.0
2060.0
2100.0
2130.0
2160.0
2190.0
2220.0
2250.0
2270.0
2290.0
2330.0
2340.0
2360.0
2380.0
2380.0
2400.0
2410.0
2410.0
2420.0
2430.0
2430.0
2440.0
2440.0
2450.0
2450.0
2440.0
2450.0
2440.0
2440.0
2420.0
2410.0
2380.0
2350.0
2320.0
2290.0
2270.0
2230.0
2190.0
2160.0
2120.0
2090.0
2040.0
2000.0
1970.0
1930.0
1900.0
1870.0
1840.0
1800.0
1780.0
1750.0
1730.0
1700.0
1690.0
1660.0
1650.0
1640.0
1630.0
1640.0
1620.0
1620.0
1620.0
1630.0
1630.0
1630.0
1640.0
1640.0
1660.0
1680.0
1690.0
1720.0
1740.0
1760.0
1790.0
1810.0
1840.0
1880.0
1920.0
1950.0
1990.0
2030.0
2070.0
2100.0
2130.0
2160.0
2190.0
2220.0
2240.0
2270.0
2290.0
2310.0
2330.0
2340.0
2370.0
2370.0
2390.0
2400.0
2410.0
2410.0
2410.0
2420.0
2420.0
2430.0
2430.0
2430.0
2440.0
2420.0
2430.0
2400.0
2400.0
2380.0
2360.0
2330.0
2320.0
2290.0
2260.0
2230.0
2180.0
2150.0
2110.0
2060.0
2030.0
1980.0
1970.0
1930.0
1910.0
1880.0
1850.0
1820.0
1770.0
1760.0
1730.0
1700.0
1680.0
1660.0
1650.0
1650.0
1640.0
1640.0
1620.0
1620.0
1620.0
1610.0
1630.0
1620.0
1630.0
1640.0
1640.0
1660.0
1680.0
1700.0
1740.0
1760.0
1790.0
1820.0
1850.0
1870.0
1910.0
1950.0
1980.0
2020.0
2050.0
2080.0
2120.0
2160.0
2180.0
2220.0
2230.0
2270.0
2280.0
2310.0
2330.0
2340.0
2360.0
2370.0
2380.0
2400.0
2410.0
2410.0
2420.0
2420.0
2430.0
2430.0
2440.0
2430.0
2430.0
2440.0
2430.0
2420.0
2410.0
2380.0
2380.0
2360.0
2320.0
2300.0
2280.0
2230.0
2200.0
2160.0
2130.0
2080.0
2040.0
2010.0
1970.0
1930.0
1900.0
1850.0
1820.0
1800.0
1770.0
1740.0
1710.0
1690.0
1680.0
1660.0
1650.0
1640.0
1630.0
1630.0
1620.0
1610.0
1610.0
1620.0
1610.0
1620.0
1630.0
1640.0
1650.0
1660.0
1690.0
1710.0
1730.0
1760.0
1800.0
1820.0
1860.0
1880.0
1910.0
1950.0
1980.0
2020.0
2050.0
2090.0
2120.0
2150.0
2170.0
2200.0
2220.0
2250.0
2280.0
2300.0
2330.0
2330.0
2340.0
2360.0
2370.0
2380.0
2390.0
2400.0
2410.0
2400.0
2420.0
2410.0
2430.0
2440.0
2440.0
2450.0
2430.0
2430.0
2390.0
2380.0
2350.0
2340.0
2310.0
2280.0
2250.0
2240.0
2200.0
2170.0
2140.0
2100.0
2050.0
2000.0
1960.0
1930.0
1890.0
1870.0
1830.0
1800.0
1770.0
1740.0
1710.0
1690.0
1670.0
1660.0
1640.0
1620.0
1630.0
1630.0
1620.0
1630.0
1630.0
1630.0
1650.0
1640.0
1650.0
1650.0
1650.0
1670.0
1680.0
1710.0
1730.0
1770.0
1790.0
1820.0
1850.0
1890.0
1930.0
1960.0
1990.0
2030.0
2070.0
2090.0
2130.0
2150.0
2180.0
2210.0
2230.0
2250.0
2280.0
2300.0
2320.0
2340.0
2360.0
2370.0
2380.0
2390.0
2390.0
2400.0
2400.0
2410.0
2410.0
2430.0
2430.0
2440.0
2430.0
2440.0
2430.0
2420.0
2410.0
2380.0
2370.0
2350.0
2320.0
2300.0
2270.0
2240.0
2210.0
2160.0
2120.0
2090.0
2050.0
2020.0
1990.0
1940.0
1910.0
1860.0
1840.0
1800.0
1780.0
1740.0
1720.0
1700.0
1670.0
1670.0
1650.0
1640.0
1630.0
1630.0
1630.0
1610.0
1610.0
1610.0
1620.0
1630.0
1640.0
1650.0
1670.0
1680.0
1710.0
1730.0
1760.0
1790.0
1800.0
1840.0
1870.0
1900.0
1930.0
1970.0
1990.0
2040.0
2080.0
2110.0
2130.0
2160.0
2190.0
2220.0
2240.0
2270.0
2280.0
2300.0
2330.0
2340.0
2360.0
2380.0
2380.0
2400.0
2400.0
2400.0
2410.0
2420.0
2420.0
2410.0
2420.0
2410.0
2420.0
2420.0
2410.0
2400.0
2390.0
2360.0
2360.0
2340.0
2340.0
2320.0
2310.0
2270.0
2240.0
2190.0
2160.0
2110.0
2070.0
2030.0
1990.0
1940.0
1920.0
1890.0
1850.0
1810.0
1790.0
1740.0
1720.0
1690.0
1660.0
1660.0
1640.0
1640.0
1630.0
1630.0
1630.0
1630.0
1630.0
1640.0
1640.0
1640.0
1650.0
1650.0
1660.0
1690.0
1700.0
1730.0
1760.0
1780.0
1810.0
1840.0
1870.0
1890.0
1930.0
1960.0
1990.0
2030.0
2070.0
2100.0
2120.0
2170.0
2180.0
2210.0
2230.0
2250.0
2270.0
2290.0
2320.0
2340.0
2350.0
2370.0
2390.0
2400.0
2410.0
2420.0
2420.0
2420.0
2430.0
2430.0
2430.0
2440.0
2430.0
2430.0
2430.0
2420.0
2410.0
2390.0
2380.0
2370.0
2340.0
2300.0
2280.0
2250.0
2210.0
2160.0
2140.0
2100.0
2060.0
2030.0
1980.0
1950.0
1920.0
1880.0
1850.0
1800.0
1770.0
1750.0
1730.0
1710.0
1670.0
1670.0
1650.0
1650.0
1630.0
1630.0
1630.0
1620.0
1620.0
1630.0
1620.0
1640.0
1630.0
1650.0
1660.0
1670.0
1700.0
1730.0
1740.0
1780.0
1800.0
1820.0
1870.0
1890.0
1930.0
1960.0
1990.0
2030.0
2070.0
2110.0
2140.0
2160.0
2180.0
2210.0
2240.0
2250.0
2290.0
2300.0
2330.0
2340.0
2360.0
2370.0
2380.0
2380.0
2400.0
2410.0
2410.0
2420.0
2420.0
2430.0
2440.0
2440.0
2440.0
2440.0
2420.0
2420.0
2410.0
2400.0
2380.0
2360.0
2340.0
2310.0
2280.0
2250.0
2210.0
2170.0
2130.0
2090.0
2040.0
2010.0
1970.0
1930.0
1900.0
1870.0
1830.0
1800.0
1770.0
1750.0
1720.0
1700.0
1680.0
1670.0
1650.0
1650.0
1640.0
1630.0
1640.0
1630.0
1630.0
1620.0
1640.0
1630.0
1640.0
1630.0
1660.0
1670.0
1690.0
1720.0
1730.0
1770.0
1790.0
1820.0
1860.0
1890.0
1930.0
1950.0
2000.0
2020.0
2070.0
2100.0
2120.0
2150.0
2190.0
2200.0
2230.0
2260.0
2270.0
2300.0
2320.0
2330.0
2340.0
2360.0
2370.0
2380.0
2390.0
2400.0
2400.0
2410.0
2410.0
2410.0
2420.0
2420.0
2430.0
2420.0
2430.0
2410.0
2400.0
2400.0
2370.0
2360.0
2340.0
2310.0
2290.0
2250.0
2210.0
2170.0
2140.0
2100.0
2050.0
2020.0
1980.0
1930.0
1900.0
1870.0
1850.0
1800.0
1790.0
1760.0
1730.0
1710.0
1700.0
1670.0
1660.0
1650.0
1630.0
1630.0
1620.0
1630.0
1620.0
1630.0
1630.0
1630.0
1640.0
1640.0
1650.0
1680.0
1690.0
1710.0
1740.0
1750.0
1780.0
1810.0
1840.0
1870.0
1900.0
1940.0
1970.0
2010.0
2060.0
2080.0
2120.0
2150.0
2190.0
2210.0
2240.0
2260.0
2280.0
2290.0
2310.0
2330.0
2350.0
2360.0
2380.0
2390.0
2400.0
2400.0
2420.0
2420.0
2420.0
2420.0
2440.0
2430.0
2430.0
2440.0
2430.0
2430.0
2410.0
2400.0
2380.0
2360.0
2330.0
2310.0
2270.0
2240.0
2200.0
2180.0
2140.0
2100.0
2050.0
2010.0
1970.0
1940.0
1890.0
1860.0
1830.0
1810.0
1770.0
1750.0
1710.0
1690.0
1680.0
1660.0
1640.0
1630.0
1620.0
1600.0
1600.0
1610.0
1620.0
1620.0
1620.0
1630.0
1630.0
1630.0
1640.0
1660.0
1680.0
1700.0
1710.0
1750.0
1780.0
1810.0
1850.0
1870.0
1900.0
1950.0
1960.0
2010.0
2050.0
2080.0
2110.0
2150.0
2170.0
2200.0
2220.0
2240.0
2270.0
2290.0
2300.0
2330.0
2340.0
2350.0
2360.0
2380.0
2390.0
2390.0
2410.0
2420.0
2420.0
2410.0
2420.0
2430.0
2410.0
2430.0
2420.0
2410.0
2390.0
2370.0
2370.0
2350.0
2330.0
2300.0
2270.0
2230.0
2210.0
2180.0
2140.0
2100.0
2050.0
2010.0
1960.0
1930.0
1890.0
1850.0
1830.0
1780.0
1760.0
1740.0
1700.0
1700.0
1670.0
1650.0
1650.0
1630.0
1630.0
1620.0
1620.0
1600.0
1610.0
1600.0
1620.0
1610.0
1630.0
1640.0
1640.0
1660.0
1670.0
1690.0
1730.0
1740.0
1780.0
1800.0
1840.0
1870.0
1900.0
1950.0
1970.0
2030.0
2060.0
2100.0
2120.0
2150.0
2180.0
2210.0
2210.0
2250.0
2270.0
2290.0
2320.0
2320.0
2350.0
2350.0
2370.0
2380.0
2390.0
2400.0
2400.0
2420.0
2410.0
2410.0
2430.0
2420.0
2420.0
2430.0
2410.0
2410.0
2400.0
2380.0
2370.0
2350.0
2330.0
2310.0
2280.0
2240.0
2200.0
2160.0
2120.0
2080.0
2040.0
2000.0
1960.0
1930.0
1890.0
1870.0
1830.0
1800.0
1770.0
1740.0
1710.0
1700.0
1680.0
1670.0
1650.0
1650.0
1640.0
1630.0
1630.0
1610.0
1620.0
1610.0
1610.0
1630.0
1620.0
1640.0
1630.0
1650.0
1670.0
1700.0
1720.0
1750.0
1780.0
1800.0
1850.0
1870.0
1910.0
1940.0
1980.0
2020.0
2060.0
2070.0
2110.0
2140.0
2160.0
2190.0
2210.0
2250.0
2260.0
2280.0
2300.0
2330.0
2340.0
2360.0
2360.0
2370.0
2390.0
2390.0
2390.0
2400.0
2410.0
2410.0
2410.0
2420.0
2410.0
2420.0
2410.0
2400.0
2400.0
2380.0
2370.0
2360.0
2330.0
2310.0
2290.0
2250.0
2220.0
2170.0
2130.0
2090.0
2050.0
2000.0
1970.0
1930.0
1880.0
1860.0
1820.0
1790.0
1760.0
1730.0
1700.0
1670.0
1660.0
1640.0
1640.0
1620.0
1620.0
1600.0
1610.0
1610.0
1610.0
1600.0
1610.0
1610.0
1620.0
1620.0
1640.0
1660.0
1680.0
1700.0
1720.0
1750.0
1770.0
1800.0
1840.0
1860.0
1900.0
1930.0
1970.0
2000.0
2030.0
2080.0
2110.0
2130.0
2160.0
2190.0
2210.0
2220.0
2250.0
2260.0
2280.0
2300.0
2320.0
2330.0
2340.0
2360.0
2370.0
2390.0
2390.0
2410.0
2410.0
2430.0
2410.0
2420.0
2420.0
2410.0
2410.0
2400.0
2400.0
2380.0
2370.0
2340.0
2320.0
2290.0
2270.0
2240.0
2210.0
2160.0
2120.0
2090.0
2040.0
2010.0
1970.0
1920.0
1900.0
1850.0
1830.0
1800.0
1760.0
1740.0
1700.0
1680.0
1660.0
1640.0
1620.0
1610.0
1600.0
1600.0
1600.0
1600.0
1590.0
1590.0
1590.0
1600.0
1600.0
1610.0
1610.0
1630.0
1650.0
1680.0
1690.0
1730.0
1760.0
1790.0
1810.0
1860.0
1890.0
1920.0
1960.0
1990.0
2020.0
2060.0
2080.0
2120.0
2140.0
2170.0
2210.0
2230.0
2260.0
2300.0
2300.0
2320.0
2320.0
2330.0
2350.0
2350.0
2380.0
2370.0
2390.0
2390.0
2400.0
2400.0
2410.0
2410.0
2420.0
2420.0
2430.0
2410.0
2390.0
2370.0
2350.0
2330.0
2300.0
2290.0
2250.0
2220.0
2190.0
2150.0
2110.0
2070.0
2030.0
2000.0
1950.0
1920.0
1890.0
1850.0
1820.0
1790.0
1760.0
1720.0
1700.0
1670.0
1650.0
1640.0
1630.0
1620.0
1600.0
1600.0
1590.0
1590.0
1580.0
1580.0
1590.0
1590.0
1600.0
1610.0
1630.0
1650.0
1660.0
1690.0
1690.0
1730.0
1750.0
1770.0
1800.0
1840.0
1860.0
1890.0
1930.0
1960.0
2000.0
2030.0
2070.0
2100.0
2120.0
2160.0
2190.0
2210.0
2230.0
2260.0
2280.0
2300.0
2320.0
2330.0
2340.0
2360.0
2360.0
2370.0
2360.0
2380.0
2380.0
2390.0
2390.0
2390.0
2400.0
2400.0
2390.0
2380.0
2380.0
2370.0
2340.0
2330.0
2310.0
2270.0
2250.0
2210.0
2180.0
2130.0
2100.0
2060.0
2020.0
1980.0
1930.0
1910.0
1860.0
1820.0
1800.0
1760.0
1740.0
1730.0
1690.0
1680.0
1650.0
1630.0
1620.0
1610.0
1600.0
1600.0
1590.0
1590.0
1580.0
1590.0
1580.0
1590.0
1590.0
1600.0
1600.0
1620.0
1640.0
1650.0
1680.0
1710.0
1740.0
1770.0
1800.0
1820.0
1860.0
1900.0
1930.0
1970.0
2000.0
2040.0
2060.0
2100.0
2120.0
2150.0
2180.0
2200.0
2220.0
2250.0
2280.0
2280.0
2300.0
2310.0
2320.0
2330.0
2340.0
2350.0
2350.0
2380.0
2380.0
2370.0
2390.0
2390.0
2380.0
2400.0
2380.0
2390.0
2360.0
2360.0
2350.0
2320.0
2300.0
2270.0
2250.0
2210.0
2180.0
2140.0
2100.0
2050.0
2020.0
1980.0
1940.0
1900.0
1880.0
1840.0
1800.0
1780.0
1740.0
1710.0
1690.0
1650.0
1640.0
1610.0
1610.0
1600.0
1590.0
1580.0
1570.0
1580.0
1570.0
1580.0
1570.0
1580.0
1590.0
1580.0
1600.0
1610.0
1640.0
1650.0
1680.0
1700.0
1740.0
1760.0
1780.0
1820.0
1850.0
1880.0
1920.0
1960.0
2000.0
2020.0
2060.0
2090.0
2120.0
2140.0
2170.0
2200.0
2210.0
2240.0
2250.0
2280.0
2290.0
2300.0
2320.0
2340.0
2350.0
2360.0
2360.0
2370.0
2380.0
2370.0
2380.0
2380.0
2380.0
2380.0
2370.0
2370.0
2360.0
2330.0
2330.0
2300.0
2280.0
2260.0
2230.0
2210.0
2170.0
2140.0
2100.0
2060.0
2010.0
1970.0
1940.0
1900.0
1860.0
1830.0
1800.0
1760.0
1730.0
1700.0
1660.0
1650.0
1620.0
1620.0
1580.0
1580.0
1560.0
1560.0
1550.0
1560.0
1570.0
1570.0
1570.0
1590.0
1590.0
1600.0
1600.0
1620.0
1640.0
1660.0
1690.0
1700.0
1750.0
1760.0
1800.0
1830.0
1860.0
1900.0
1930.0
1970.0
2010.0
2030.0
2070.0
2090.0
2110.0
2160.0
2170.0
2200.0
2230.0
2240.0
2260.0
2270.0
2270.0
2290.0
2300.0
2300.0
2330.0
2330.0
2340.0
2350.0
2370.0
2370.0
2380.0
2390.0
2390.0
2380.0
2390.0
2380.0
2360.0
2340.0
2330.0
2300.0
2280.0
2260.0
2240.0
2210.0
2170.0
2130.0
2100.0
2050.0
2010.0
1950.0
1920.0
1900.0
1860.0
1830.0
1800.0
1780.0
1730.0
1710.0
1670.0
1650.0
1620.0
1600.0
1590.0
1580.0
1560.0
1570.0
1560.0
1560.0
1550.0
1560.0
1560.0
1570.0
1580.0
1570.0
1580.0
1610.0
1620.0
1630.0
1670.0
1690.0
1720.0
1740.0
1780.0
1800.0
1840.0
1880.0
1910.0
1940.0
1980.0
2030.0
2050.0
2090.0
2110.0
2130.0
2170.0
2180.0
2210.0
2230.0
2260.0
2270.0
2280.0
2290.0
2310.0
2320.0
2350.0
2350.0
2370.0
2380.0
2380.0
2390.0
2380.0
2390.0
2390.0
2380.0
2390.0
2370.0
2360.0
2350.0
2330.0
2310.0
2280.0
2250.0
2220.0
2200.0
2170.0
2110.0
2090.0
2050.0
1990.0
1950.0
1910.0
1880.0
1850.0
1810.0
1790.0
1770.0
1750.0
1730.0
1690.0
1660.0
1640.0
1610.0
1600.0
1590.0
1580.0
1580.0
1560.0
1560.0
1550.0
1570.0
1560.0
1560.0
1570.0
1580.0
1590.0
1600.0
1620.0
1630.0
1660.0
1680.0
1720.0
1740.0
1770.0
1810.0
1830.0
1870.0
1900.0
1940.0
1970.0
2010.0
2030.0
2070.0
2090.0
2110.0
2150.0
2170.0
2210.0
2220.0
2250.0
2270.0
2280.0
2290.0
2310.0
2310.0
2330.0
2340.0
2350.0
2350.0
2360.0
2370.0
2360.0
2370.0
2370.0
2370.0
2360.0
2360.0
2340.0
2320.0
2310.0
2290.0
2280.0
2250.0
2230.0
2190.0
2170.0
2120.0
2080.0
2050.0
2000.0
1970.0
1930.0
1890.0
1860.0
1820.0
1790.0
1750.0
1730.0
1690.0
1650.0
1640.0
1610.0
1600.0
1590.0
1570.0
1570.0
1550.0
1560.0
1550.0
1550.0
1540.0
1550.0
1540.0
1550.0
1570.0
1580.0
1600.0
1620.0
1630.0
1650.0
1680.0
1700.0
1730.0
1760.0
1780.0
1820.0
1860.0
1890.0
1940.0
1970.0
2000.0
2030.0
2050.0
2070.0
2100.0
2120.0
2160.0
2180.0
2220.0
2240.0
2260.0
2280.0
2290.0
2310.0
2320.0
2320.0
2330.0
2340.0
2340.0
2350.0
2330.0
2350.0
2360.0
2350.0
2360.0
2350.0
2350.0
2330.0
2330.0
2300.0
2290.0
2250.0
2250.0
2210.0
2190.0
2160.0
2120.0
2080.0
2040.0
2000.0
1950.0
1920.0
1880.0
1840.0
1810.0
1760.0
1750.0
1700.0
1680.0
1650.0
1630.0
1600.0
1590.0
1580.0
1560.0
1550.0
1550.0
1540.0
1540.0
1540.0
1540.0
1540.0
1540.0
1540.0
1550.0
1570.0
1570.0
1590.0
1610.0
1630.0
1650.0
1690.0
1710.0
1730.0
1760.0
1790.0
1840.0
1870.0
1910.0
1970.0
2000.0
2040.0
2060.0
2090.0
2110.0
2150.0
2150.0
2170.0
2200.0
2220.0
2240.0
2250.0
2260.0
2280.0
2280.0
2300.0
2310.0
2320.0
2320.0
2330.0
2330.0
2320.0
2340.0
2340.0
2350.0
2350.0
2350.0
2340.0
2330.0
2310.0
2290.0
2270.0
2250.0
2220.0
2170.0
2150.0
2120.0
2070.0
2030.0
1980.0
1950.0
1900.0
1870.0
1830.0
1800.0
1760.0
1730.0
1710.0
1670.0
1640.0
1610.0
1580.0
1570.0
1550.0
1550.0
1550.0
1540.0
1530.0
1520.0
1520.0
1520.0
1520.0
1520.0
1520.0
1530.0
1530.0
1550.0
1560.0
1590.0
1630.0
1660.0
1700.0
1740.0
1760.0
1780.0
1810.0
1840.0
1870.0
1910.0
1950.0
1980.0
2010.0
2040.0
2070.0
2090.0
2110.0
2130.0
2170.0
2180.0
2210.0
2220.0
2240.0
2260.0
2280.0
2300.0
2300.0
2320.0
2330.0
2320.0
2340.0
2340.0
2350.0
2330.0
2350.0
2340.0
2340.0
2340.0
2320.0
2310.0
2310.0
2290.0
2260.0
2230.0
2210.0
2160.0
2140.0
2100.0
2050.0
2030.0
1980.0
1940.0
1910.0
1870.0
1830.0
1800.0
1760.0
1730.0
1700.0
1660.0
1640.0
1610.0
1600.0
1570.0
1560.0
1550.0
1550.0
1530.0
1530.0
1520.0
1520.0
1510.0
1530.0
1530.0
1520.0
1540.0
1540.0
1560.0
1580.0
1590.0
1620.0
1640.0
1680.0
1700.0
1720.0
1770.0
1790.0
1840.0
1860.0
1910.0
1940.0
1980.0
2000.0
2030.0
2070.0
2090.0
2120.0
2150.0
2160.0
2180.0
2210.0
2220.0
2230.0
2260.0
2270.0
2280.0
2280.0
2300.0
2300.0
2310.0
2320.0
2310.0
2330.0
2330.0
2330.0
2340.0
2330.0
2320.0
2320.0
2290.0
2290.0
2270.0
2260.0
2230.0
2210.0
2160.0
2130.0
2090.0
2020.0
2000.0
1960.0
1920.0
1890.0
1870.0
1820.0
1800.0
1760.0
1720.0
1690.0
1650.0
1640.0
1610.0
1590.0
1570.0
1570.0
1550.0
1540.0
1530.0
1520.0
1520.0
1530.0
1520.0
1530.0
1530.0
1540.0
1540.0
1560.0
1560.0
1590.0
1600.0
1620.0
1640.0
1680.0
1700.0
1720.0
1760.0
1790.0
1820.0
1860.0
1900.0
1930.0
1970.0
2000.0
2040.0
2070.0
2090.0
2120.0
2150.0
2170.0
2180.0
2210.0
2230.0
2230.0
2260.0
2270.0
2290.0
2290.0
2300.0
2310.0
2310.0
2310.0
2330.0
2330.0
2330.0
2330.0
2330.0
2330.0
2310.0
2310.0
2290.0
2290.0
2260.0
2250.0
2220.0
2190.0
2160.0
2130.0
2090.0
2050.0
2010.0
1970.0
1930.0
1900.0
1860.0
1820.0
1780.0
1750.0
1720.0
1680.0
1650.0
1620.0
1580.0
1570.0
1530.0
1530.0
1520.0
1500.0
1510.0
1490.0
1490.0
1490.0
1500.0
1490.0
1510.0
1520.0
1540.0
1550.0
1580.0
1580.0
1610.0
1620.0
1650.0
1680.0
1710.0
1730.0
1760.0
1790.0
1820.0
1860.0
1890.0
1930.0
1960.0
2000.0
2020.0
2050.0
2060.0
2100.0
2120.0
2150.0
2180.0
2200.0
2220.0
2250.0
2270.0
2280.0
2300.0
2290.0
2300.0
2310.0
2310.0
2320.0
2330.0
2330.0
2330.0
2340.0
2340.0
2330.0
2330.0
2320.0
2290.0
2300.0
2260.0
2250.0
2230.0
2190.0
2160.0
2130.0
2090.0
2040.0
2000.0
1970.0
1930.0
1890.0
1850.0
1810.0
1780.0
1750.0
1720.0
1690.0
1650.0
1630.0
1600.0
1580.0
1570.0
1560.0
1530.0
1530.0
1520.0
1500.0
1510.0
1500.0
1510.0
1500.0
1510.0
1520.0
1520.0
1530.0
1540.0
1570.0
1580.0
1600.0
1620.0
1660.0
1680.0
1710.0
1750.0
1780.0
1810.0
1840.0
1880.0
1910.0
1950.0
1980.0
2020.0
2040.0
2070.0
2100.0
2120.0
2150.0
2160.0
2190.0
2210.0
2210.0
2250.0
2250.0
2270.0
2280.0
2280.0
2290.0
2290.0
2300.0
2300.0
2300.0
2310.0
2310.0
2320.0
2310.0
2310.0
2300.0
2280.0
2270.0
2250.0
2230.0
2200.0
2170.0
2140.0
2100.0
2060.0
2020.0
1970.0
1940.0
1900.0
1850.0
1840.0
1790.0
1780.0
1750.0
1730.0
1700.0
1670.0
1650.0
1610.0
1580.0
1560.0
1540.0
1530.0
1510.0
1500.0
1490.0
1490.0
1500.0
1480.0
1490.0
1490.0
1490.0
1510.0
1510.0
1510.0
1540.0
1570.0
1580.0
1610.0
1640.0
1660.0
1690.0
1730.0
1760.0
1790.0
1820.0
1870.0
1900.0
1930.0
1970.0
1990.0
2020.0
2050.0
2080.0
2100.0
2140.0
2160.0
2180.0
2200.0
2210.0
2230.0
2240.0
2250.0
2260.0
2260.0
2280.0
2290.0
2290.0
2310.0
2300.0
2300.0
2310.0
2310.0
2310.0
2290.0
2290.0
2280.0
2270.0
2250.0
2230.0
2200.0
2170.0
2150.0
2110.0
2070.0
2030.0
1990.0
1950.0
1910.0
1870.0
1840.0
1810.0
1770.0
1730.0
1700.0
1670.0
1640.0
1610.0
1580.0
1550.0
1530.0
1520.0
1500.0
1490.0
1500.0
1480.0
1490.0
1470.0
1490.0
1480.0
1490.0
1490.0
1510.0
1510.0
1520.0
1530.0
1540.0
1570.0
1590.0
1630.0
1660.0
1680.0
1710.0
1740.0
