1545
1278
1428
1464
1254
1581
1254
1491
1467
1350
1440
1254
1521
1365
1296
1572
1197
1521
1347
1320
1452
1227
1575
1320
1398
1491
1206
1644
1191
1461
1473
1158
1626
1245
1500
1380
1266
1668
1053
1590
1368
1230
1581
1194
1623
1233
1419
1341
1137
1695
1263
1365
1515
1218
1590
1224
1464
1440
1281
1641
1191
1584
1362
1239
1683
1059
1611
1320
1365
1461
1182
1707
1200
1410
1521
1140
1689
1200
1437
1476
1176
1632
1140
1578
1404
1185
1689
1173
1449
1317
1383
1602
1113
1680
1230
1371
1572
1071
1650
1263
1383
1455
1173
1662
1086
1554
1404
1215
1704
1101
1542
1356
1317
1674
1104
1692
1278
1284
1683
1068
1608
1221
1485
1539
1149
1686
1143
1590
1365
1194
1728
1089
1674
1308
1224
1686
1101
1689
1272
1329
1512
1065
1767
1185
1386
1590
1026
1800
1197
1560
1428
1173
1767
1020
1659
1557
993
1788
1095
1809
1197
1341
1620
1029
1767
1269
1263
1656
1023
1710
1221
1374
1572
1086
1764
1107
1611
1503
1068
1806
1020
1515
1434
1203
1749
1044
1770
1047
1392
1692
993
1791
1329
1305
1728
963
1845
1191
1485
1458
1035
1737
1143
1623
1509
957
1800
1089
1425
1335
1176
1671
1005
1803
1155
1437
1581
990
1869
960
1533
1608
972
1851
1050
1323
1494
1158
1713
1065
1725
1320
1200
1737
1098
1527
1302
1338
1641
1074
1815
993
1491
1548
987
1797
1104
1542
1215
1191
1839
1068
1638
1332
1248
1497
1053
1866
1119
1287
1650
978
1812
1305
1407
1659
1035
1851
1086
1497
1560
972
1806
1050
1584
1353
1242
1740
951
1812
1323
1242
1692
954
1890
1203
1323
1647
996
1734
1128
1455
1437
1092
1860
1002
1596
1410
1116
1830
753
1716
1365
1293
1458
1038
1752
1272
1221
1704
1017
1797
1095
1425
1593
1014
1755
1119
1500
1521
1125
1743
1008
1788
1407
1197
1875
987
1707
1275
1413
1623
966
1713
1221
1362
1674
1014
1875
1167
1506
1542
945
1941
1080
1527
1431
1200
1656
1056
1740
1182
1236
1710
978
1833
1290
1257
1617
798
1875
1146
1515
1530
918
1884
1065
1413
1500
1227
1689
831
1734
1158
1263
1692
903
1842
1449
1014
1761
1095
1530
1011
1425
1575
951
1809
1080
1605
1281
1146
1986
855
1842
1251
1221
1893
1182
1371
1371
1104
1524
984
2061
645
1422
1620
987
2016
903
1515
1260
1131
1923
1179
1470
1572
951
1800
1161
1434
1377
1164
1650
1059
1815
1251
1242
1749
960
1806
1068
1482
1638
1053
2013
1365
1518
1593
1182
1818
1113
1611
1293
1101
1899
861
1878
1362
1056
1797
891
1878
1116
1494
1419
969
2007
669
1734
1743
783
2052
993
1764
1437
1104
1821
597
1812
1314
858
1800
1023
1698
1128
1476
1419
1014
1857
1101
1401
1458
1131
1815
999
1482
1386
1221
1704
999
1776
1209
1281
1662
1002
1893
1281
1350
1662
1047
1851
1191
1395
1569
1074
1857
1146
1653
1236
1074
1743
984
1776
1212
1272
1710
954
1650
1140
1473
1635
1011
1791
1026
1617
1419
1017
1878
996
1701
1356
1134
1803
909
1803
1245
1263
1725
927
1827
1125
1410
1608
948
1875
1047
1554
1494
1056
1836
999
1668
1362
1170
1770
1005
1719
1245
1326
1638
1089
1722
1182
1455
1449
1167
1653
1164
1527
1359
1278
1566
1194
1575
1311
1350
1518
1218
1575
1263
1413
1446
1239
1569
1248
1491
1401
1275
1557
1242
1515
1362
1329
1524
1230
1545
1311
1371
1485
1242
1551
1287
1419
1440
1254
1542
1260
1458
1398
1269
1542
1254
1506
1371
1323
1515
1239
1533
1338
1371
1485
1257
1545
1287
1407
1446
1260
1536
1269
1428
1407
1290
1536
1260
1485
1368
1311
1518
1254
1521
1344
1353
1491
1260
1536
1305
1392
1458
1269
1539
1272
1425
1416
1284
1533
1278
1464
1377
1299
1530
1269
1497
1359
1344
1506
1260
1518
1326
1377
1467
1266
1536
1293
1407
1431
1272
1533
1263
1440
1404
1296
1515
1269
1482
1371
1314
1512
1266
1509
1344
1365
1485
1266
1524
1317
1395
1458
1275
1530
1293
1419
1422
1287
1530
1281
1458
1377
1311
1509
1269
1491
1356
1353
1500
1272
1527
1332
1377
1467
1278
1515
1305
1404
1440
1284
1542
1281
1440
1389
1302
1524
1275
1470
1371
1317
1521
1284
1506
1338
1359
1488
1257
1518
1326
1392
1461
1278
1530
1296
1428
1419
1287
1485
1281
1449
1395
1311
1512
1278
1485
1365
1329
1500
1269
1509
1338
1371
1470
1281
1521
1311
1410
1440
1284
1521
1281
1431
1413
1299
1524
1272
1467
1386
1317
1515
1272
1497
1347
1362
1482
1275
1506
1326
1386
1455
1278
1524
1293
1419
1428
1299
1536
1275
1443
1389
1317
1512
1275
1482
1356
1338
1491
1278
1518
1335
1371
1470
1275
1521
1305
1401
1443
1290
1527
1290
1425
1401
1302
1515
1278
1467
1374
1332
1506
1278
1494
1350
1356
1479
1275
1506
1326
1389
1452
1284
1521
1311
1416
1419
1299
1515
1287
1440
1383
1311
1509
1275
1482
1359
1335
1494
1272
1497
1347
1368
1473
1281
1518
1311
1401
1452
1293
1512
1293
1425
1410
1299
1512
1281
1455
1380
1323
1503
1275
1482
1356
1341
1488
1275
1497
1338
1380
1458
1290
1515
1308
1407
1437
1293
1515
1296
1431
1404
1302
1509
1272
1458
1380
1335
1494
1287
1491
1350
1344
1476
1281
1515
1332
1386
1452
1296
1515
1311
1413
1428
1296
1521
1296
1437
1392
1305
1515
1284
1476
1368
1329
1497
1278
1497
1347
1356
1476
1278
1509
1335
1392
1452
1290
1518
1302
1422
1431
1302
1509
1287
1443
1389
1311
1500
1284
1479
1368
1338
1485
1278
1494
1338
1368
1473
1290
1503
1323
1410
1443
1299
1512
1299
1425
1416
1305
1497
1287
1455
1386
1329
1500
1287
1473
1365
1344
1488
1284
1503
1332
1374
1452
1290
1509
1320
1404
1437
1296
1512
1296
1425
1407
1311
1506
1299
1443
1383
1323
1500
1281
1473
1359
1347
1476
1281
1503
1335
1377
1461
1296
1512
1320
1398
1431
1299
1497
1281
1431
1467
1254
1515
1335
1413
1374
1314
1656
1227
1440
1320
1335
1533
1338
1395
1449
1284
1572
1254
1482
1266
1311
1692
1062
1626
1404
1323
1686
1260
1437
1269
1548
1461
1215
1680
1131
1455
1671
882
1806
1317
1977
1167
1293
1581
1152
1485
1788
909
1695
975
1803
1227
1317
1392
1197
1824
1008
1527
1587
1233
1854
861
1575
1413
1155
1794
1071
1332
1308
1071
1521
1170
1506
1212
1494
1509
684
2064
771
1764
1053
1218
1812
1053
1716
1308
1227
1359
960
1923
1056
1362
1707
996
1839
1095
1482
1608
1137
1953
921
1719
1452
1173
1728
1008
1533
1488
1218
1590
1137
1764
1032
1374
1671
999
1827
1110
1647
1257
1044
1968
930
1590
1401
1254
1731
1143
1269
1377
1440
1491
897
1869
870
1425
1665
762
1878
1308
1092
1821
864
1908
1062
1641
1392
1227
1680
1212
1299
1290
1410
1692
930
1773
1206
1461
1917
552
1932
1365
1509
1572
939
1857
1035
1500
1431
1164
1635
912
1938
1305
1248
1647
951
2043
978
1398
1893
930
1983
942
1566
1608
807
1869
1062
1644
1356
1161
1908
594
1899
1254
1260
1716
963
1788
1266
1347
1749
900
1884
1098
1626
1536
825
1902
1080
1668
903
1236
1890
909
1770
1425
1083
1677
966
1818
1185
1434
1632
1191
1692
1164
1491
1611
1101
1803
987
1731
1047
1188
1851
1044
1740
1314
1260
1737
837
1881
1257
1494
1662
1008
1752
1161
1482
1461
1029
1854
1071
1581
1380
1233
1665
1128
1611
1080
1314
1965
696
1908
1173
1449
1638
1383
1839
1143
1557
1503
1050
1899
1155
1413
1443
1122
1809
960
1602
1320
1098
1785
753
1872
1107
1371
1659
1029
1776
1023
1560
1521
1020
1884
1023
1704
1407
1101
1938
729
1740
1332
1071
1782
924
1854
1140
1338
1596
894
1839
996
1518
1521
873
2070
936
1629
1557
966
1884
1095
1371
1359
1287
1683
960
1827
1212
1302
1653
978
1998
993
1503
1587
933
1899
1005
1599
1602
1050
1737
972
1734
1299
1140
1968
723
1860
1302
1200
1893
702
1818
1155
1395
1635
933
1746
999
1626
1560
1068
1779
1224
1398
1437
1125
1848
981
1791
1335
1218
1773
954
1605
1176
1374
1680
825
1902
1032
1563
1431
978
1983
966
1788
1362
1143
1872
939
1728
1290
1203
1770
1047
1800
1179
1215
1698
939
1980
945
1512
1512
978
1917
1146
1560
1563
1020
1899
894
1692
1302
1167
1674
903
1890
1158
1098
1719
987
1872
1017
1443
1620
915
1992
897
1608
1515
1035
1998
861
1707
1383
1173
1905
864
1833
1269
1254
1704
1035
1818
960
1446
1650
873
1926
1035
1497
1506
1011
2034
726
1764
1473
1110
1848
927
1908
1203
1227
1776
903
1962
1062
1356
1671
891
1908
1110
1509
1539
1032
1809
1059
1599
1380
1029
1893
972
1758
1293
1182
1785
927
1752
1227
1251
1647
951
1605
1149
1584
1548
993
1890
1008
1659
1455
867
1917
987
1719
1347
1146
1791
939
1869
1230
1134
1617
1017
1938
1104
1434
1608
933
1710
1005
1620
1512
1041
1875
966
1680
1407
939
1785
891
1851
1383
1074
1770
927
1812
1134
1428
1599
996
1953
1074
1593
1500
1026
1938
897
1719
1377
1107
1695
948
1863
1194
1272
1785
912
1887
1113
1311
1656
957
1857
1095
1542
1608
903
1920
972
1638
1431
1065
1920
957
1788
1350
1095
1767
876
1782
1023
1419
1716
774
1878
1200
1452
1632
939
1920
1044
1590
1503
1092
1710
912
1746
1320
1107
1809
927
1749
1278
1257
1641
894
1914
1098
1362
1608
945
1878
1026
1542
1539
933
1941
810
1755
1386
1116
1851
945
1740
1251
972
1833
912
1833
1188
1401
1599
939
1941
1047
1449
1623
984
1959
999
1659
1476
1035
1878
888
1743
1335
1179
1881
795
1821
1275
1263
1713
894
1902
1224
1431
1698
942
1902
1020
1572
1563
858
1896
996
1689
1386
1101
1863
837
1806
1308
1221
1776
867
1914
1167
1359
1626
897
1983
918
1560
1668
768
1938
1032
1533
1467
1080
1914
918
1767
1335
1053
1860
921
1899
942
1308
1752
903
1890
1053
1443
1746
777
1953
1041
1560
1494
1008
1917
933
1713
1413
936
1860
930
1830
1248
1224
1749
894
1866
1161
1305
1674
885
1968
1002
1569
1539
1038
1950
969
1635
1449
1080
1887
948
1671
1341
1233
1740
921
1851
1194
1275
1725
936
1911
1134
1491
1704
933
1965
1014
1605
1611
915
1968
912
1773
1299
1197
1743
960
1872
1122
1281
1722
858
1935
1257
1215
1764
1002
1941
1062
1506
1506
924
1866
990
1671
1506
1059
1818
933
1710
1332
1101
1830
990
1788
1254
1305
1680
996
1854
1110
1452
1662
858
1932
1011
1623
1476
990
1896
936
1716
1368
1116
1848
705
1869
1263
1218
1758
894
1899
1128
1422
1581
915
1917
1035
1527
1548
966
1914
966
1665
1404
1071
1860
930
1764
1281
1182
1791
897
1842
1170
1311
1671
918
1863
1074
1485
1569
999
1857
1026
1623
1449
1125
1788
1041
1698
1323
1284
1635
1065
1695
1221
1362
1527
1137
1659
1173
1500
1404
1227
1617
1170
1551
1335
1311
1539
1197
1575
1284
1371
1485
1221
1590
1257
1425
1437
1245
1569
1233
1491
1377
1281
1554
1230
1542
1353
1335
1524
1233
1569
1314
1383
1482
1242
1569
1263
1419
1440
1257
1554
1245
1473
1383
1281
1548
1230
1509
1347
1329
1527
1233
1551
1308
1371
1488
1230
1554
1275
1413
1443
1263
1554
1254
1455
1407
1284
1551
1257
1500
1362
1308
1527
1239
1527
1335
1359
1482
1245
1548
1302
1392
1464
1257
1563
1278
1440
1410
1269
1551
1260
1479
1374
1296
1530
1236
1530
1344
1347
1503
1242
1539
1314
1380
1470
1260
1548
1284
1422
1428
1272
1548
1251
1452
1392
1290
1542
1257
1500
1356
1323
1515
1251
1530
1341
1362
1488
1266
1545
1299
1398
1455
1263
1545
1272
1434
1419
1275
1548
1260
1464
1380
1296
1524
1254
1515
1338
1344
1497
1251
1530
1317
1377
1476
1254
1545
1287
1407
1443
1275
1539
1269
1452
1398
1284
1536
1251
1491
1371
1323
1518
1254
1524
1341
1356
1500
1260
1545
1305
1392
1470
1269
1545
1281
1443
1419
1278
1530
1266
1470
1383
1305
1530
1257
1506
1359
1332
1500
1263
1527
1335
1380
1476
1266
1539
1296
1413
1443
1272
1536
1269
1434
1401
1293
1533
1263
1491
1365
1311
1506
1254
1521
1338
1359
1491
1263
1533
1308
1392
1470
1266
1539
1287
1425
1419
1281
1536
1266
1452
1386
1305
1524
1269
1497
1359
1332
1506
1251
1521
1329
1374
1470
1272
1536
1299
1407
1446
1275
1536
1260
1434
1404
1299
1530
1260
1479
1371
1320
1518
1260
1506
1338
1347
1488
1260
1530
1302
1389
1452
1269
1527
1287
1401
1425
1272
1533
1272
1449
1386
1302
1503
1260
1488
1362
1329
1503
1260
1521
1335
1368
1476
1269
1533
1302
1404
1449
1275
1530
1281
1440
1404
1290
1527
1278
1461
1371
1320
1512
1266
1515
1347
1362
1488
1269
1527
1314
1395
1452
1284
1527
1293
1416
1419
1284
1539
1275
1452
1386
1311
1521
1263
1488
1359
1329
1503
1260
1527
1332
1377
1485
1272
1527
1296
1410
1446
1284
1527
1284
1434
1398
1296
1527
1275
1470
1371
1323
1503
1266
1497
1320
1356
1485
1272
1521
1314
1389
1452
1278
1521
1293
1428
1431
1302
1524
1272
1452
1383
1308
1512
1272
1467
1362
1332
1500
1260
1524
1332
1371
1470
1275
1521
1302
1404
1452
1290
1527
1281
1434
1398
1299
1518
1269
1473
1371
1329
1506
1266
1503
1347
1353
1485
1269
1503
1326
1395
1452
1278
1524
1293
1410
1419
1290
1527
1275
1449
1389
1317
1509
1275
1488
1356
1341
1497
1263
1509
1332
1356
1473
1281
1518
1299
1410
1434
1290
1527
1284
1440
1401
1299
1521
1284
1473
1377
1329
1503
1284
1500
1347
1356
1482
1272
1515
1314
1392
1455
1281
1524
1299
1407
1431
1293
1527
1278
1443
1395
1311
1512
1275
1482
1353
1332
1491
1272
1497
1353
1368
1470
1275
1515
1320
1398
1443
1287
1518
1302
1428
1416
1296
1521
1287
1455
1395
1314
1506
1275
1488
1362
1344
1491
1269
1512
1338
1374
1473
1275
1518
1299
1413
1440
1296
1524
1290
1437
1401
1308
1515
1275
1461
1377
1323
1500
1284
1497
1347
1362
1485
1275
1515
1326
1389
1452
1296
1521
1299
1419
1431
1293
1524
1284
1440
1401
1302
1512
1278
1470
1371
1329
1503
1278
1494
1347
1359
1482
1269
1515
1314
1392
1449
1287
1527
1311
1419
1425
1296
1527
1278
1437
1395
1320
1512
1281
1479
1362
1332
1500
1281
1500
1350
1380
1479
1284
1515
1317
1407
1437
1290
1524
1296
1434
1416
1302
1512
1281
1458
1386
1323
1503
1278
1482
1362
1341
1485
1275
1509
1335
1389
1467
1284
1512
1305
1413
1431
1293
1518
1296
1437
1407
1314
1518
1272
1467
1374
1323
1509
1275
1482
1350
1347
1482
1275
1509
1329
1389
1458
1287
1515
1305
1416
1413
1299
1512
1290
1440
1380
1314
1512
1284
1452
1365
1341
1497
1275
1491
1344
1350
1473
1272
1515
1320
1395
1452
1287
1518
1299
1419
1419
1296
1512
1281
1446
1407
1320
1509
1275
1473
1365
1341
1491
1281
1503
1338
1368
1470
1287
1497
1314
1398
1437
1296
1515
1296
1434
1410
1302
1512
1278
1452
1380
1326
1497
1281
1485
1353
1347
1482
1281
1509
1329
1380
1467
1275
1518
1305
1410
1431
1290
1518
1290
1434
1404
1302
1512
1281
1461
1362
1338
1497
1281
1491
1350
1359
1476
1278
1506
1326
1395
1452
1290
1509
1308
1419
1434
1305
1515
1287
1440
1401
1311
1503
1281
1467
1365
1341
1491
1275
1485
1341
1371
1473
1284
1506
1323
1401
1446
1302
1515
1299
1428
1413
1299
1509
1284
1443
1389
1326
1503
1275
1482
1350
1347
1488
1278
1500
1338
1371
1467
1293
1515
1317
1401
1449
1290
1515
1296
1422
1410
1302
1515
1281
1452
1377
1323
1503
1287
1479
1353
1347
1485
1281
1509
1326
1383
1455
1293
1512
1302
1416
1434
1317
1479
1296
1452
1428
1308
1503
1317
1428
1386
1320
1503
1275
1446
1377
1311
1515
1260
1488
1383
1299
1536
1212
1536
1320
1464
1455
1185
1575
1344
1341
1521
1233
1587
1182
1491
1476
1143
1749
1095
1530
1482
1161
1737
1107
1614
1353
1236
1773
1134
1560
1248
1326
1599
1038
1737
1200
1335
1677
1110
1689
1167
1533
1509
1089
1884
1035
1575
1440
1176
1707
1197
1533
1404
1206
1719
921
1758
1164
1314
1638
1068
1731
1194
1479
1254
1089
1839
1062
1518
1491
1113
1644
1173
1590
1305
1176
1845
921
1806
1239
1329
1629
987
1956
1032
1389
1593
1038
1887
1008
1560
1380
1143
1842
1020
1638
1356
1227
1584
975
1800
1206
1311
1758
789
1896
1206
1356
1605
1086
1746
1065
1650
1434
1089
1965
882
1779
1317
1218
1758
864
1824
1209
1371
1635
999
1617
1209
1467
1575
1035
1872
1014
1623
1419
1086
1869
933
1695
1302
1179
1725
915
1776
1158
1317
1671
933
1944
1038
1449
1569
1056
1818
1014
1641
1431
1077
1896
876
1683
1320
1236
1779
888
1809
1179
1335
1605
948
1932
1125
1458
1536
987
1890
972
1587
1527
1032
1836
1014
1707
1392
1185
1728
975
1791
1233
1275
1674
870
1854
1197
1344
1551
963
1938
1029
1572
1521
1062
1812
951
1626
1440
1044
1830
981
1695
1236
1365
1638
927
1809
1158
1389
1689
960
1872
1083
1551
1563
1008
1884
1020
1656
1371
1125
1896
894
1749
1407
960
1806
1014
1803
1161
1332
1596
924
1890
1089
1488
1482
987
1884
1020
1614
1458
999
1860
1020
1668
1302
1146
1761
969
1794
1224
1314
1548
927
1869
1065
1428
1656
840
1938
1119
1455
1506
1137
1788
930
1740
1377
1164
1794
930
1782
1263
1257
1806
798
1884
1155
1410
1515
951
1893
1107
1434
1632
933
1923
1062
1671
1368
1140
1833
939
1728
1317
1161
1767
945
1797
1212
1377
1608
1035
1755
1110
1404
1569
951
1875
1002
1644
1545
1023
1863
978
1698
1377
1200
1857
885
1815
1215
1239
1710
951
1758
1065
1368
1521
933
1917
1053
1572
1557
999
1914
936
1635
1326
1164
1794
924
1806
1200
1197
1749
954
1812
1209
1338
1662
906
1860
1074
1512
1563
999
1866
1026
1647
1401
1116
1863
948
1767
1266
1170
1818
936
1782
1215
1317
1632
933
1893
1122
1452
1647
1011
1902
927
1599
1488
1002
1896
948
1659
1314
1215
1764
939
1806
1221
1215
1761
810
1863
1113
1434
1500
939
1917
1032
1524
1551
1026
1854
969
1719
1362
1140
1869
798
1854
1197
1206
1776
912
1860
1086
1383
1641
939
1881
1065
1497
1551
951
1881
1059
1515
1407
1065
1920
879
1791
1341
1167
1779
924
1935
1056
1347
1656
945
1851
1083
1467
1596
951
1845
1110
1521
1443
999
1899
957
1788
1275
1062
1848
1002
1893
1290
1167
1746
984
1731
1149
1425
1587
951
1920
1101
1479
1488
1041
1938
906
1734
1371
1128
1926
837
1797
1338
1143
1761
1023
1791
1143
1269
1743
873
1974
960
1512
1566
909
1863
1053
1569
1464
1203
1689
972
1737
1278
1143
1854
852
1815
1197
1275
1671
951
1878
1098
1470
1638
969
1845
1062
1584
1497
1047
1962
843
1719
1377
1128
1818
906
1929
1047
1233
1776
909
1860
1140
1389
1641
861
1902
1089
1560
1578
1032
1902
1041
1692
1293
1119
1875
969
1710
1308
1194
1794
882
1917
1095
1350
1695
960
1746
1137
1479
1602
981
1878
1017
1596
1440
1032
1893
1011
1677
1353
1161
1791
903
1815
1323
1239
1782
957
1860
1146
1344
1647
942
1911
1062
1560
1425
1062
1905
963
1707
1383
1068
1821
963
1776
1197
1230
1764
924
1857
1125
1398
1692
834
1914
984
1539
1593
933
1932
978
1644
1485
1014
1869
954
1704
1293
1140
1791
921
1851
1155
1320
1617
897
1896
1086
1503
1542
993
1905
1029
1590
1464
945
1911
972
1722
1323
1083
1821
915
1935
1023
1341
1734
888
1878
1143
1443
1701
873
1959
1020
1554
1512
1005
1902
945
1629
1428
1023
1899
894
1863
1146
1254
1788
924
1830
1152
1368
1644
891
1887
1089
1494
1584
978
1902
1005
1623
1488
1161
1827
987
1746
1356
1134
1812
915
1860
1104
1305
1773
873
1896
1104
1437
1518
1017
1848
1002
1599
1479
1005
1926
918
1794
1296
1131
1866
816
1830
1239
1242
1695
912
1887
1128
1398
1668
807
1962
1071
1626
1452
996
1902
849
1734
1431
1116
1845
951
1779
1305
1185
1743
882
1956
1062
1371
1683
921
1899
1074
1506
1602
918
1947
1074
1632
1476
1077
1881
948
1641
1326
1164
1899
711
1851
1338
1119
1725
930
1881
990
1512
1575
957
1926
1020
1572
1515
1029
1899
918
1761
1269
1179
1887
834
1824
1236
1353
1560
1011
1767
1092
1431
1587
876
1950
1008
1590
1440
1053
1881
1041
1665
1326
1119
1875
936
1779
1341
1161
1785
927
1926
1128
1374
1593
921
1884
1080
1566
1557
1065
1836
1008
1692
1350
1107
1905
927
1761
1272
1167
1797
891
1761
1185
1302
1698
897
1899
1071
1479
1584
993
1836
1020
1623
1473
1041
1884
930
1728
1317
1149
1812
891
1824
1200
1269
1752
843
1947
1035
1464
1641
903
1911
1005
1590
1488
1014
1884
948
1701
1356
1110
1830
900
1815
1233
1233
1740
888
1869
1140
1383
1650
924
1899
1050
1536
1548
1020
1890
981
1653
1425
1173
1806
1074
1725
1266
1278
1545
1098
1668
1164
1422
1449
1164
1638
1179
1539
1389
1257
1596
1170
1581
1323
1326
1539
1185
1590
1257
1392
1473
1206
1593
1239
1449
1422
1260
1572
1227
1512
1374
1287
1566
1218
1551
1329
1329
1515
1224
1569
1281
1392
1479
1230
1581
1248
1440
1422
1257
1569
1230
1482
1383
1287
1551
1224
1542
1347
1335
1521
1233
1560
1305
1383
1482
1233
1581
1254
1434
1431
1251
1566
1236
1473
1386
1275
1566
1233
1524
1350
1320
1533
1230
1548
1314
1368
1482
1242
1560
1275
1419
1449
1257
1563
1248
1455
1404
1275
1554
1245
1509
1362
1311
1536
1236
1536
1329
1359
1500
1239
1557
1293
1398
1464
1245
1563
1257
1437
1422
1263
1554
1245
1485
1386
1293
1545
1242
1524
1344
1335
1512
1239
1554
1311
1383
1476
1245
1554
1275
1419
1437
1248
1557
1245
1461
1395
1290
1554
1245
1512
1356
1314
1530
1245
1542
1332
1374
1494
1251
1551
1284
1404
1455
1257
1557
1260
1437
1407
1272
1551
1254
1491
1371
1302
1536
1242
1521
1341
1353
1509
1251
1539
1311
1395
1470
1257
1557
1275
1425
1428
1266
1557
1239
1464
1389
1302
1542
1251
1509
1353
1323
1521
1251
1533
1326
1374
1479
1251
1548
1290
1407
1449
1266
1551
1263
1443
1416
1287
1545
1251
1491
1374
1308
1524
1242
1524
1347
1356
1500
1254
1545
1302
1395
1476
1257
1548
1272
1425
1416
1278
1551
1254
1467
1377
1299
1533
1248
1512
1356
1335
1518
1248
1539
1326
1377
1479
1260
1542
1287
1404
1449
1263
1551
1269
1449
1395
1284
1536
1254
1494
1368
1317
1518
1242
1524
1341
1356
1494
1254
1542
1299
1401
1464
1269
1542
1272
1431
1419
1272
1545
1260
1476
1383
1299
1530
1254
1500
1341
1338
1512
1257
1527
1317
1377
1470
1263
1539
1287
1425
1443
1263
1545
1266
1449
1386
1299
1539
1254
1491
1365
1314
1518
1251
1527
1332
1359
1488
1260
1533
1299
1404
1458
1266
1548
1275
1431
1416
1281
1539
1263
1473
1374
1302
1527
1251
1515
1350
1347
1506
1254
1533
1320
1392
1461
1275
1533
1287
1425
1431
1281
1554
1266
1458
1389
1302
1530
1260
1491
1365
1320
1518
1245
1527
1332
1371
1479
1269
1539
1296
1410
1452
1272
1542
1269
1446
1407
1296
1536
1263
1476
1371
1317
1518
1245
1512
1338
1353
1497
1263
1533
1308
1395
1458
1269
1533
1290
1422
1422
1278
1536
1266
1464
1383
1311
1527
1266
1491
1353
1332
1506
1260
1542
1329
1380
1488
1266
1539
1290
1407
1437
1278
1536
1266
1434
1401
1290
1527
1260
1488
1365
1314
1515
1260
1515
1338
1365
1500
1263
1533
1305
1395
1458
1272
1533
1281
1431
1416
1287
1539
1266
1467
1380
1308
1521
1260
1506
1347
1347
1497
1269
1524
1323
1383
1464
1272
1536
1287
1416
1434
1272
1536
1254
1452
1395
1302
1524
1263
1494
1362
1329
1506
1260
1515
1341
1371
1479
1272
1530
1293
1407
1449
1272
1542
1284
1443
1407
1287
1527
1260
1473
1374
1317
1518
1242
1512
1347
1347
1494
1266
1527
1314
1404
1452
1275
1542
1281
1434
1419
1284
1530
1272
1458
1383
1314
1515
1251
1503
1350
1338
1497
1263
1521
1323
1374
1467
1269
1530
1281
1410
1437
1290
1533
1272
1446
1383
1299
1524
1266
1491
1368
1323
1503
1263
1515
1338
1365
1482
1266
1527
1302
1404
1446
1281
1536
1281
1434
1404
1296
1530
1275
1464
1374
1326
1512
1263
1500
1341
1353
1485
1269
1524
1320
1392
1458
1275
1527
1287
1428
1428
1287
1533
1269
1458
1383
1308
1512
1266
1494
1356
1329
1500
1266
1524
1326
1383
1476
1269
1536
1296
1416
1446
1287
1527
1272
1446
1392
1308
1521
1269
1479
1374
1320
1509
1272
1512
1335
1362
1479
1269
1524
1305
1407
1443
1284
1536
1281
1431
1416
1296
1524
1269
1464
1362
1320
1518
1263
1500
1353
1350
1491
1251
1515
1326
1380
1461
1275
1524
1299
1422
1434
1290
1530
1266
1449
1404
1299
1521
1272
1485
1365
1332
1506
1266
1509
1347
1359
1479
1266
1518
1317
1395
1446
1284
1530
1293
1425
1422
1290
1530
1275
1455
1377
1308
1518
1260
1494
1350
1338
1497
1272
1521
1329
1377
1467
1275
1530
1302
1410
1440
1293
1524
1284
1443
1404
1299
1518
1260
1473
1371
1332
1506
1269
1497
1347
1350
1488
1275
1515
1317
1389
1458
1287
1515
1293
1422
1425
1296
1524
1272
1449
1389
1311
1512
1272
1488
1356
1332
1494
1281
1509
1338
1377
1476
1281
1524
1308
1407
1449
1290
1521
1281
1434
1410
1296
1524
1272
1464
1371
1329
1503
1269
1491
1338
1353
1485
1257
1524
1326
1380
1458
1284
1521
1293
1416
1428
1287
1521
1278
1449
1386
1302
1512
1272
1482
1374
1335
1500
1278
1500
1341
1371
1476
1278
1518
1317
1404
1446
1287
1521
1293
1440
1416
1302
1524
1272
1452
1374
1317
1509
1272
1497
1353
1347
1491
1275
1515
1332
1386
1464
1281
1521
1305
1419
1434
1299
1521
1278
1443
1395
1308
1521
1272
1470
1371
1335
1503
1269
1500
1326
1359
1476
1278
1518
1320
1392
1449
1287
1518
1296
1425
1416
1299
1527
1275
1449
1383
1317
1512
1275
1485
1350
1335
1491
1269
1512
1335
1386
1464
1284
1521
1305
1410
1434
1290
1515
1290
1434
1398
1308
1518
1275
1461
1362
1335
1506
1275
1494
1356
1353
1488
1278
1503
1320
1389
1458
1287
1524
1299
1419
1428
1296
1518
1278
1446
1386
1305
1509
1275
1476
1356
1335
1491
1278
1506
1335
1371
1473
1275
1521
1311
1404
1446
1287
1518
1299
1434
1407
1299
1521
1257
1461
1374
1317
1503
1275
1497
1350
1344
1482
1272
1518
1320
1389
1455
1287
1524
1308
1419
1422
1296
1524
1281
1443
1392
1305
1512
1272
1476
1362
1335
1497
1278
1497
1338
1368
1476
1275
1515
1323
1404
1449
1290
1515
1293
1428
1419
1302
1515
1266
1458
1383
1323
1494
1281
1482
1359
1332
1485
1272
1512
1332
1386
1467
1287
1509
1305
1422
1428
1299
1518
1284
1440
1395
1311
1512
1278
1467
1365
1335
1494
1275
1494
1338
1359
1479
1278
1509
1320
1383
1440
1287
1515
1299
1431
1422
1308
1518
1278
1455
1383
1320
1506
1275
1482
1353
1344
1485
1278
1506
1335
1377
1470
1284
1527
1302
1410
1431
1293
1509
1284
1437
1398
1308
1509
1281
1464
1368
1332
1497
1278
1494
1347
1353
1476
1281
1509
1323
1395
1446
1269
1521
1293
1422
1422
1305
1518
1278
1446
1383
1320
1506
1278
1476
1353
1347
1488
1278
1500
1329
1380
1470
1281
1512
1314
1410
1428
1293
1512
1296
1440
1410
1305
1512
1278
1464
1371
1329
1497
1281
1494
1344
1356
1461
1278
1506
1329
1389
1455
1287
1521
1302
1419
1419
1305
1515
1284
1449
1389
1317
1509
1281
1470
1356
1338
1497
1284
1506
1335
1371
1464
1281
1512
1323
1410
1434
1302
1515
1290
1431
1410
1311
1512
1278
1461
1359
1329
1494
1275
1485
1350
1350
1479
1278
1506
1329
1392
1458
1287
1518
1302
1416
1428
1302
1512
1290
1446
1395
1323
1497
1278
1476
1371
1329
1503
1293
1446
1314
1476
1305
1302
1698
1077
1443
1569
1260
1539
1257
1449
1368
1248
1665
1122
1452
1575
1170
1773
1059
1446
1533
1224
1767
1077
1509
1509
1296
1659
1173
1728
1182
1332
1557
954
1827
1296
1284
1662
1134
1626
1392
1233
1605
1077
1896
1137
1518
1530
1044
1599
1260
1017
1500
1209
1827
951
1743
1311
1263
1677
924
1908
1233
1206
1704
993
1698
1041
1560
1581
1062
1965
729
1701
1413
978
1872
966
1791
1248
1332
1497
888
1881
1194
1338
1635
924
1725
1089
1608
1524
1002
1884
951
1668
1311
1110
1839
930
1776
1257
1176
1686
954
1872
1104
1425
1596
906
1926
1071
1554
1503
996
1776
1101
1557
1407
1062
1857
933
1854
1350
1188
1794
846
1935
1017
1365
1710
1026
1812
1107
1662
1335
1125
1881
975
1728
1347
1140
1887
891
1821
1287
1326
1713
882
1785
900
1530
1695
861
1932
882
1578
1536
870
1794
963
1716
1347
1125
1869
837
1848
1254
1317
1695
1011
1833
921
1551
1599
957
1989
963
1626
1428
966
1950
975
1719
1284
1143
1821
936
1833
1191
1278
1920
576
1956
1131
1380
1620
945
1974
891
1653
1386
1017
1857
906
1695
1410
1227
1779
936
1803
1260
1284
1707
912
1959
1062
1410
1635
957
1848
1038
1566
1509
993
1896
933
1698
1416
1083
1833
924
1845
1188
1239
1827
696
1944
1308
1257
1671
963
1815
1041
1545
1557
978
1941
840
1758
1335
1107
1890
936
1797
1218
1167
1695
933
1902
1107
1449
1626
891
1869
1134
1455
1584
1065
1875
1128
1590
1260
1137
1947
795
1779
1305
1263
1695
933
1809
1218
1314
1731
828
1860
1092
1443
1536
1050
1857
1053
1677
1341
1128
1932
897
1653
1317
1191
1782
915
1779
1206
1389
1440
969
1875
1077
1422
1509
990
1926
954
1692
1428
1215
1713
990
1662
1329
1206
1776
912
1866
1215
1254
1794
816
1905
1122
1488
1599
936
1890
912
1710
1545
921
1920
876
1758
1302
1140
1836
786
1881
1284
1071
1710
915
2004
885
1467
1650
942
1875
1041
1584
1437
1080
1833
861
1782
1263
1062
1881
993
1713
1257
1398
1677
984
1800
1164
1419
1590
951
1923
1044
1632
1488
1044
1797
1002
1671
1242
1167
1785
951
1788
1194
1266
1713
891
1884
1035
1437
1599
963
1770
1056
1623
1536
1002
1941
912
1701
1356
1182
1755
900
1845
1122
1284
1779
894
1878
1152
1374
1674
969
1725
1092
1638
1521
1035
1887
819
1704
1410
1125
1878
792
1818
1245
1203
1785
816
1884
1134
1323
1566
957
1899
1116
1167
1602
1032
1902
1029
1476
1503
1158
1863
912
1752
1257
1206
1779
897
1872
1161
1272
1761
963
1893
1041
1578
1383
1011
1935
990
1581
1395
1062
1782
999
1755
1284
1173
2028
528
1935
1179
1335
1644
930
1875
1041
1536
1494
1020
1971
972
1710
1551
840
1938
897
1806
1323
1167
1782
894
1815
1017
1359
1707
894
1878
1098
1461
1578
1050
1848
963
1683
1470
1161
1866
945
1854
1206
1230
1767
1002
1791
1224
1419
1596
975
1911
999
1554
1554
999
1869
939
1692
1419
1137
1830
879
1800
1257
1281
1593
921
1893
1107
1461
1587
897
1914
1071
1446
1494
1044
1908
954
1737
1248
1062
1881
969
1815
1284
1182
1770
897
1851
1137
1410
1575
942
1950
1050
1560
1533
999
1923
945
1659
1341
1101
1824
939
1836
1248
1215
1626
921
1896
1143
1395
1635
990
1956
882
1596
1479
996
1884
924
1734
1368
1149
1746
936
1761
1275
1176
1785
855
1878
1194
1266
1572
930
1944
1104
1554
1557
981
1935
915
1734
1341
1053
1905
939
1788
1266
1200
1770
948
1716
1170
1320
1725
903
1920
975
1533
1593
915
1887
1002
1584
1488
1029
1782
972
1758
1326
1200
1761
912
1872
1143
1233
1737
933
1863
1092
1461
1626
972
1878
1023
1605
1446
1092
1794
918
1797
1287
1161
1830
891
1785
1227
1272
1617
942
1839
1083
1434
1623
888
1899
1026
1530
1590
1056
1884
954
1716
1335
1185
1755
927
1830
1251
1167
1785
909
1941
1074
1380
1686
924
1911
1032
1581
1545
831
1956
954
1617
1440
1146
1824
924
1818
1200
1215
1755
882
1917
1095
1392
1668
903
1947
1044
1506
1539
1002
1875
951
1656
1389
1113
1896
909
1767
1227
1182
1791
927
1824
1116
1407
1596
912
1926
1059
1530
1542
981
1911
939
1683
1548
1083
1878
945
1728
1317
1203
1773
798
1881
1170
1356
1662
873
1881
954
1515
1602
999
1800
1023
1671
1368
1095
1863
942
1797
1236
1131
1815
933
1851
1188
1338
1716
861
1803
1092
1527
1509
978
1905
1002
1683
1413
1110
1851
1008
1716
1284
1176
1821
891
1926
1005
1344
1719
948
1836
1110
1455
1602
1020
1719
1029
1641
1458
1044
1869
930
1746
1338
1257
1668
936
1905
1218
1269
1719
900
1887
1041
1479
1683
894
1944
957
1602
1524
990
1815
1059
1710
1359
1128
1836
909
1836
1194
1209
1767
837
1890
1161
1374
1635
1008
1749
978
1563
1533
999
1911
963
1713
1350
1212
1737
969
1803
1242
1206
1764
906
1776
1107
1398
1731
894
1872
1062
1485
1548
1128
1725
939
1695
1419
1095
1770
915
1806
1317
1068
1722
903
1881
1134
1347
1716
846
1830
1098
1533
1578
939
1893
966
1629
1431
1266
1728
981
1785
1308
1185
1785
894
1869
1161
1335
1575
957
1857
1083
1503
1587
978
1881
990
1602
1476
1086
1929
891
1755
1314
1185
1803
1035
1743
1209
1326
1689
897
1896
1059
1428
1623
969
1917
948
1611
1509
1008
1920
939
1842
1131
1215
1872
867
1854
1155
1317
1719
909
1863
1098
1503
1446
1011
1950
1014
1626
1488
1011
1872
1014
1674
1377
1179
1797
942
1710
1209
1437
1506
942
1968
1107
1458
1617
969
1947
927
1608
1479
1026
1863
972
1746
1362
1053
1827
954
1734
1263
1260
1749
948
1719
1158
1413
1569
945
1938
1116
1413
1539
1053
1869
966
1659
1302
1131
1881
882
1722
1272
1260
1686
897
1857
1038
1413
1641
921
1929
1005
1575
1569
945
1926
855
1737
1356
1107
1878
918
1821
1266
1233
1788
663
1935
1152
1395
1671
852
1899
1047
1572
1554
960
1956
867
1743
1329
1185
1749
939
1800
1227
1170
1773
897
1884
1092
1443
1611
960
1860
1026
1572
1479
981
1977
888
1641
1389
1050
1899
870
1800
1284
1203
1767
837
1872
1164
1350
1650
906
1911
1050
1587
1566
978
1857
1005
1629
1386
1098
1875
951
1740
1218
1209
1794
885
1938
1101
1380
1791
780
1947
1095
1443
1536
1035
1899
912
1680
1410
1083
1899
831
1746
1275
1230
1728
894
1845
1155
1401
1650
903
1908
999
1602
1569
987
1935
873
1701
1431
1074
1872
1092
1608
1323
1233
1773
897
1863
1137
1371
1650
918
1839
1101
1593
1506
942
1932
978
1641
1413
1149
1812
969
1656
1239
1215
1776
876
1878
1155
1410
1491
924
1929
1125
1416
1566
939
1911
996
1653
1440
1017
1866
915
1809
1236
1191
1764
882
1890
1140
1290
1713
900
1920
1047
1482
1629
855
1911
1005
1614
1473
960
1914
933
1779
1320
1116
1854
912
1872
1194
1236
1725
900
1917
1158
1227
1608
975
1938
990
1608
1449
1005
1857
966
1722
1368
1137
1833
906
1836
1203
1185
1734
867
1905
1182
1230
1623
936
1941
978
1572
1533
1005
1911
906
1650
1434
1074
1884
816
1836
1230
1230
1803
849
1851
1083
1362
1656
906
1935
1020
1539
1593
948
1905
999
1644
1323
1107
1857
909
1719
1224
1206
1761
888
1878
1131
1398
1632
885
1926
1041
1581
1569
1038
1908
954
1704
1389
1089
1923
843
1833
1308
1203
1710
915
1911
1155
1317
1680
906
1956
975
1554
1515
981
1911
921
1635
1374
1104
1911
903
1767
1296
1215
1740
861
1896
1161
1323
1680
870
1953
1068
1458
1515
978
1938
984
1617
1476
1053
1935
858
1776
1323
1149
1803
867
1860
1194
1311
1677
894
1908
1062
1551
1464
972
1920
981
1647
1416
999
1938
903
1749
1347
1083
1812
885
1887
1083
1275
1800
834
1884
1116
1371
1596
921
1920
990
1614
1467
960
1947
939
1707
1299
1179
1842
840
1827
1233
1248
1764
903
1839
1107
1425
1695
834
1920
1047
1470
1551
1005
1908
936
1680
1506
975
1875
912
1812
1242
1209
1791
846
1905
1131
1413
1470
924
1938
1062
1443
1536
966
1974
804
1710
1425
1092
1866
921
1770
1302
1191
1764
909
1905
1110
1359
1677
870
1899
1062
1506
1608
915
1917
1023
1575
1383
1044
1785
930
1803
1326
1149
1878
843
1881
1179
1260
1722
891
1926
1101
1398
1623
930
1866
1002
1677
1401
1053
1908
975
1650
1338
1152
1854
867
1803
1215
1365
1611
858
1920
1098
1416
1668
960
1950
1011
1632
1446
1155
1815
993
1752
1353
1080
1857
876
1842
1206
1170
1860
681
1947
1146
1347
1650
897
1932
1008
1623
1371
882
1905
1008
1743
1398
1155
1875
831
1860
1224
1248
1764
879
1899
1107
1413
1635
903
1926
1017
1554
1527
996
1941
945
1707
1353
1125
1830
909
1839
1257
1287
1728
981
1818
1185
1458
1509
1071
1731
1080
1557
1392
1203
1638
1107
1626
1296
1326
1578
1137
1635
1227
1401
1482
1170
1641
1191
1497
1416
1230
1620
1179
1563
1347
1305
1575
1191
1590
1287
1368
1521
1197
1608
1248
1428
1455
1227
1605
1215
1488
1392
1239
1587
1203
1545
1356
1317
1551
1212
1587
1290
1371
1497
1209
1593
1248
1425
1443
1233
1599
1224
1503
1392
1266
1572
1206
1545
1335
1332
1539
1215
1572
1287
1383
1497
1224
1587
1254
1422
1440
1242
1587
1236
1482
1392
1263
1560
1218
1542
1350
1323
1542
1215
1563
1305
1374
1500
1224
1581
1260
1425
1443
1239
1587
1227
1476
1398
1263
1569
1224
1521
1359
1311
1548
1218
1563
1311
1368
1500
1233
1575
1266
1422
1455
1242
1581
1248
1452
1404
1263
1572
1221
1512
1362
1302
1545
1221
1551
1326
1350
1515
1227
1572
1281
1392
1473
1236
1578
1245
1428
1419
1260
1575
1236
1497
1371
1278
1548
1218
1542
1335
1341
1521
1233
1557
1293
1392
1482
1242
1587
1251
1431
1434
1251
1575
1239
1482
1380
1281
1557
1230
1527
1347
1326
1530
1230
1557
1305
1383
1485
1233
1566
1263
1422
1440
1248
1578
1236
1464
1395
1275
1563
1230
1518
1356
1317
1539
1227
1548
1317
1374
1494
1242
1578
1275
1410
1455
1251
1578
1251
1452
1407
1266
1560
1233
1506
1359
1299
1533
1227
1545
1323
1359
1503
1239
1563
1287
1401
1467
1245
1569
1257
1446
1413
1263
1560
1242
1497
1368
1299
1545
1239
1542
1335
1347
1509
1233
1563
1290
1398
1482
1239
1563
1263
1434
1428
1260
1563
1251
1479
1383
1287
1542
1230
1533
1347
1329
1524
1239
1554
1302
1383
1485
1239
1566
1266
1419
1434
1257
1563
1248
1467
1386
1287
1551
1239
1518
1350
1320
1524
1239
1554
1314
1374
1482
1248
1563
1269
1407
1449
1248
1563
1248
1461
1401
1281
1548
1245
1512
1341
1311
1536
1239
1548
1317
1365
1491
1245
1551
1281
1410
1452
1257
1566
1254
1452
1401
1272
1557
1239
1506
1371
1305
1533
1236
1536
1329
1353
1500
1242
1554
1293
1401
1476
1257
1560
1263
1443
1416
1272
1560
1245
1485
1371
1299
1539
1245
1527
1338
1338
1518
1242
1551
1302
1392
1461
1257
1557
1269
1425
1428
1266
1557
1251
1464
1392
1296
1551
1242
1509
1347
1329
1518
1233
1548
1311
1380
1485
1248
1560
1281
1413
1452
1260
1560
1254
1449
1407
1278
1548
1242
1503
1356
1314
1530
1245
1533
1329
1368
1494
1248
1557
1290
1401
1452
1263
1563
1260
1446
1407
1281
1554
1248
1491
1368
1308
1530
1239
1530
1341
1347
1506
1236
1548
1299
1389
1464
1251
1551
1269
1437
1425
1263
1566
1251
1467
1383
1299
1539
1242
1512
1347
1338
1515
1242
1545
1317
1380
1476
1254
1557
1281
1419
1434
1263
1560
1248
1467
1392
1293
1545
1245
1500
1347
1320
1515
1245
1533
1326
1368
1494
1257
1551
1284
1410
1455
1266
1554
1254
1443
1407
1278
1551
1248
1488
1365
1305
1527
1245
1524
1332
1356
1497
1245
1545
1296
1401
1467
1263
1551
1263
1440
1419
1272
1548
1254
1479
1377
1302
1542
1254
1518
1359
1335
1509
1251
1551
1311
1395
1464
1263
1551
1290
1419
1425
1272
1554
1251
1461
1386
1296
1536
1254
1509
1356
1332
1518
1242
1539
1320
1374
1485
1254
1551
1278
1413
1440
1275
1554
1251
1449
1395
1296
1545
1245
1494
1356
1311
1524
1248
1530
1326
1362
1488
1254
1554
1296
1404
1455
1263
1557
1266
1443
1407
1281
1542
1260
1488
1371
1305
1530
1248
1518
1335
1347
1500
1257
1539
1308
1398
1464
1260
1545
1281
1434
1419
1278
1548
1257
1473
1380
1302
1518
1248
1509
1344
1335
1503
1245
1542
1314
1377
1476
1263
1548
1278
1428
1437
1272
1557
1254
1458
1392
1299
1542
1254
1500
1353
1323
1518
1242
1536
1326
1374
1479
1257
1548
1293
1416
1449
1269
1548
1269
1446
1401
1284
1539
1251
1485
1359
1317
1527
1248
1533
1332
1353
1488
1254
1539
1296
1404
1461
1266
1551
1269
1437
1407
1287
1542
1257
1482
1374
1314
1524
1251
1518
1344
1347
1500
1254
1539
1308
1389
1464
1269
1548
1287
1425
1428
1278
1545
1257
1464
1380
1305
1530
1254
1503
1350
1332
1494
1257
1533
1320
1386
1464
1260
1542
1284
1416
1437
1275
1548
1266
1455
1392
1293
1539
1257
1491
1353
1323
1515
1257
1530
1329
1371
1488
1257
1545
1293
1410
1449
1272
1548
1269
1446
1407
1287
1539
1257
1479
1365
1314
1521
1254
1515
1341
1359
1488
1257
1536
1305
1398
1452
1275
1545
1278
1437
1416
1287
1539
1266
1470
1374
1314
1521
1251
1515
1344
1344
1503
1254
1539
1314
1389
1467
1281
1539
1278
1425
1428
1287
1542
1257
1461
1380
1305
1533
1260
1494
1359
1326
1509
1257
1527
1323
1383
1476
1263
1539
1293
1419
1440
1278
1539
1266
1449
1395
1290
1536
1257
1491
1353
1332
1509
1260
1518
1329
1365
1485
1263
1521
1296
1407
1452
1269
1542
1278
1440
1410
1287
1533
1254
1476
1365
1320
1515
1257
1518
1332
1353
1491
1260
1536
1308
1404
1452
1272
1536
1278
1434
1422
1284
1542
1263
1461
1374
1311
1521
1257
1503
1341
1341
1497
1254
1533
1317
1386
1464
1272
1536
1287
1425
1428
1281
1545
1272
1464
1383
1305
1530
1260
1494
1347
1329
1506
1260
1521
1317
1374
1479
1275
1539
1290
1416
1443
1278
1542
1272
1452
1398
1302
1527
1239
1485
1356
1326
1506
1257
1512
1329
1368
1482
1269
1530
1299
1404
1446
1278
1536
1278
1437
1407
1293
1533
1260
1476
1365
1320
1512
1275
1509
1338
1347
1491
1260
1530
1314
1392
1458
1278
1536
1287
1431
1416
1290
1539
1266
1464
1374
1323
1524
1263
1506
1347
1341
1500
1266
1524
1314
1386
1461
1275
1533
1284
1428
1431
1290
1530
1260
1458
1383
1311
1530
1260
1491
1350
1335
1500
1260
1518
1326
1371
1473
1269
1530
1293
1419
1434
1284
1533
1272
1446
1401
1299
1524
1260
1485
1362
1329
1506
1266
1518
1329
1362
1485
1248
1527
1305
1407
1443
1284
1533
1275
1446
1404
1299
1530
1266
1470
1362
1329
1509
1260
1509
1335
1356
1488
1263
1533
1317
1401
1455
1281
1536
1281
1440
1413
1299
1533
1269
1467
1380
1317
1518
1257
1497
1341
1350
1491
1272
1533
1317
1395
1455
1275
1533
1284
1431
1428
1293
1536
1266
1455
1380
1296
1515
1263
1491
1347
1341
1494
1263
1527
1320
1377
1467
1272
1530
1299
1413
1431
1290
1536
1275
1443
1395
1299
1527
1260
1476
1368
1332
1512
1263
1506
1335
1365
1482
1266
1527
1311
1401
1446
1272
1533
1284
1431
1422
1293
1536
1266
1455
1380
1320
1515
1260
1491
1350
1338
1494
1263
1527
1320
1383
1467
1272
1533
1299
1422
1431
1299
1527
1272
1446
1395
1305
1524
1263
1479
1362
1332
1506
1266
1512
1329
1365
1476
1272
1530
1308
1398
1443
1290
1527
1284
1437
1413
1302
1527
1260
1464
1374
1323
1512
1260
1497
1347
1350
1491
1260
1518
1323
1386
1458
1278
1527
1296
1419
1428
1293
1527
1272
1458
1395
1305
1521
1266
1485
1356
1338
1506
1266
1515
1329
1368
1479
1269
1533
1308
1407
1437
1287
1533
1281
1443
1413
1302
1527
1272
1464
1374
1326
1512
1260
1497
1347
1350
1494
1269
1527
1320
1386
1461
1278
1536
1296
1419
1431
1287
1530
1269
1446
1389
1308
1512
1269
1467
1359
1314
1512
1257
1515
1335
1359
1491
1251
1536
1311
1374
1470
1263
1539
1284
1407
1452
1263
1560
1260
1437
1410
1263
1581
1245
1488
1386
1275
1575
1203
1539
1356
1314
1548
1200
1581
1305
1338
1533
1209
1602
1254
1395
1488
1188
1623
1212
1467
1446
1200
1629
1194
1536
1398
1284
1602
1173
1575
1323
1311
1569
1182
1620
1233
1380
1539
1110
1638
1215
1461
1362
1164
1728
1164
1479
1455
1188
1674
1116
1602
1302
1257
1740
963
1689
1302
1224
1656
1047
1794
1149
1416
1560
1020
1782
1149
1452
1497
1122
1833
1035
1674
1413
1149
1782
972
1776
1224
1236
1722
906
1854
1152
1368
1626
939
1869
1062
1506
1530
1029
1854
999
1677
1362
1167
1788
846
1839
1368
1167
1734
927
1893
1089
1479
1590
912
1929
900
1605
1479
1047
1809
960
1737
1344
1137
1827
852
1869
1230
1296
1710
924
1902
1062
1494
1569
924
1923
948
1587
1455
1071
1857
879
1791
1293
1194
1791
909
1878
1125
1365
1737
816
2004
984
1524
1563
966
1926
960
1686
1371
1056
1902
858
1806
1266
1230
1752
864
1902
1107
1398
1656
762
1983
954
1572
1539
1035
1914
933
1725
1305
1143
1857
846
1866
1179
1242
1695
864
1932
1098
1416
1608
915
1941
972
1608
1476
966
1920
861
1773
1332
1143
1833
843
1878
1173
1314
1701
864
1980
1029
1437
1578
885
1962
957
1650
1476
978
1893
900
1836
1212
1161
1830
852
1899
1149
1275
1722
879
1866
996
1515
1572
957
1962
984
1587
1452
1059
1953
816
1851
1272
1011
1863
798
1917
1122
1305
1710
822
2010
1026
1536
1587
915
1914
915
1740
1437
996
1962
852
1821
1293
1128
1839
873
1878
1125
1362
1668
843
2016
1008
1488
1605
915
1977
876
1719
1449
1053
1929
831
1800
1191
1188
1842
828
1986
1077
1323
1761
813
1986
1005
1536
1605
798
1992
939
1698
1434
978
1962
864
1836
1257
1185
1830
828
1950
1119
1335
1716
846
1989
993
1512
1587
879
2016
897
1659
1545
966
1980
759
1836
1335
1125
1851
801
1923
1122
1350
1716
786
2007
1029
1470
1581
840
2037
870
1650
1449
1056
1923
891
1779
1317
1131
1818
819
1926
1146
1263
1767
759
2004
1011
1515
1599
900
2109
831
1674
1497
969
1938
864
1818
1356
957
1824
828
1923
1230
1236
1746
831
1977
1014
1527
1599
909
2052
837
1677
1476
1062
1881
873
1836
1224
1122
1875
810
1986
1053
1362
1728
840
1956
1035
1509
1602
888
2010
954
1722
1440
1014
1968
831
1764
1335
1098
1878
825
1896
1155
1308
1692
813
2061
1002
1479
1638
834
2058
822
1626
1398
1029
1950
864
1785
1284
1131
1875
771
1893
1122
1266
1740
822
2022
1050
1455
1599
909
1998
903
1707
1452
1023
2010
822
1809
1320
1134
1872
837
1887
1194
1197
1779
822
2004
1041
1524
1596
864
2022
936
1632
1494
1020
1968
834
1779
1332
1146
1866
819
1893
1170
1269
1761
738
2019
1071
1476
1584
873
2019
984
1614
1503
942
1968
867
1785
1323
1050
1875
837
1914
1221
1086
1809
825
1974
1059
1422
1638
879
2001
945
1644
1413
984
1971
864
1791
1389
1038
1917
840
1905
1170
1242
1752
831
1965
1044
1485
1608
873
1995
963
1557
1497
948
1962
882
1743
1353
1113
1785
852
1932
1164
1212
1791
840
1992
1047
1356
1671
849
2010
963
1563
1515
999
1938
900
1758
1383
990
1959
807
1878
1173
1227
1791
798
1968
960
1449
1701
801
2013
966
1608
1509
933
1974
942
1707
1335
1104
1905
807
1872
1161
1206
1806
855
1830
1110
1368
1692
843
1998
927
1587
1530
963
1971
894
1767
1227
1116
1914
843
1878
1242
1041
1797
843
1953
1089
1371
1668
822
1998
933
1572
1566
948
1956
897
1755
1410
1038
1926
831
1836
1230
1167
1851
792
1983
1050
1392
1707
840
2034
939
1527
1590
921
2025
888
1710
1419
1023
1893
819
1857
1263
1152
1863
768
1935
1092
1341
1686
828
1929
1041
1482
1605
918
1968
924
1731
1329
1044
1905
879
1872
1263
1152
1893
765
1941
1140
1296
1731
813
2013
1002
1524
1602
885
2019
906
1665
1515
957
1953
873
1737
1296
1152
1860
798
1929
1140
1245
1743
825
1968
1065
1434
1650
876
2001
1017
1485
1494
1014
1953
933
1689
1320
1137
1860
843
1914
1002
1326
1746
813
1980
984
1413
1653
894
1998
903
1674
1482
972
1962
858
1800
1275
1128
1848
804
1935
1158
1278
1764
783
1995
1023
1485
1644
768
1956
948
1695
1443
987
1974
849
1815
1311
1152
1893
855
1938
1182
1230
1776
825
1920
1059
1473
1605
807
2061
888
1692
1524
999
1956
861
1770
1335
1041
1908
822
1905
1164
1272
1794
831
1971
1119
1305
1686
882
2013
912
1584
1503
987
1968
873
1806
1266
1113
1911
828
1809
1176
1230
1767
837
1938
1038
1455
1563
813
2031
924
1614
1515
954
1941
885
1749
1359
1080
1968
651
1827
1233
1215
1779
819
1923
1062
1446
1611
852
2025
942
1638
1548
915
1992
867
1752
1371
1077
1902
822
1890
1185
1233
1776
774
1938
1089
1422
1623
840
2004
966
1563
1509
936
1977
918
1725
1359
1053
1944
861
1854
1161
1263
1761
888
1830
1116
1401
1674
822
2019
966
1626
1479
954
1959
894
1659
1437
1068
1899
846
1887
1197
1224
1797
825
1971
1035
1380
1734
813
2040
957
1602
1554
945
1977
897
1677
1365
1101
1923
822
1902
1206
1224
1806
855
1959
1074
1401
1683
843
1971
888
1614
1551
948
1980
927
1665
1377
1083
1920
828
1965
1014
1224
1821
816
1956
1107
1356
1686
837
1992
972
1629
1530
960
1980
897
1728
1416
1038
1941
837
1872
1176
1227
1794
813
1944
1119
1356
1680
780
1995
993
1593
1542
861
2004
909
1713
1407
1077
1917
837
1809
1263
1173
1830
828
1953
1128
1323
1722
831
1998
882
1593
1599
957
1977
927
1704
1383
1029
1953
831
1848
1251
1173
1833
813
1950
1113
1323
1737
813
1989
978
1548
1599
918
2010
945
1620
1467
1023
1971
786
1836
1302
1122
1902
783
1926
1140
1296
1731
831
2001
987
1458
1656
825
2001
939
1608
1461
1023
1932
846
1821
1314
1020
1893
816
1914
1161
1245
1701
852
2028
1008
1464
1641
879
2004
954
1602
1518
969
1956
894
1818
1341
1098
1893
813
1917
1128
1266
1689
723
1938
1062
1464
1635
846
2013
936
1587
1536
1023
1851
879
1791
1338
1056
1878
858
1839
1182
1263
1764
813
1989
1101
1377
1644
867
2007
993
1626
1494
957
1905
903
1770
1365
1107
1908
783
1884
1188
1212
1695
849
1965
1047
1440
1698
777
1995
948
1680
1437
984
1980
888
1743
1350
1092
1932
738
1959
1173
1248
1782
828
1953
1032
1431
1728
783
1968
972
1620
1515
915
1989
861
1692
1353
1065
1914
849
1797
1206
1233
1779
807
1977
1095
1437
1662
891
1989
978
1635
1527
990
1947
906
1761
1347
1083
1848
837
1887
1167
1194
1833
795
1926
1089
1422
1659
846
1974
954
1575
1551
960
1899
918
1773
1383
1026
1920
795
1884
1200
1209
1740
777
1968
1074
1410
1668
831
2031
936
1602
1548
894
1986
918
1728
1380
1080
1953
774
1860
1209
1218
1791
834
1974
1005
1428
1677
819
1974
945
1602
1524
948
2034
828
1725
1410
1092
1911
849
1851
1218
1206
1809
795
1953
1137
1335
1656
762
2025
879
1596
1548
945
1983
951
1665
1371
1092
1893
843
1851
1233
1206
1815
822
1971
1008
1398
1677
828
1977
984
1587
1506
957
1974
912
1665
1398
1068
1911
795
1902
1266
1083
1839
819
1956
1086
1383
1698
834
2079
873
1617
1527
933
1998
903
1740
1368
1053
1926
1026
1647
1266
1218
1809
801
1938
1119
1353
1713
843
2010
960
1590
1611
855
2007
909
1752
1383
1059
1914
837
1878
1242
1230
1764
831
1992
1017
1365
1695
834
1947
948
1560
1590
849
2010
864
1740
1374
1062
1935
834
1866
1233
1173
1824
801
1944
1074
1344
1695
825
2001
954
1575
1545
951
1971
885
1776
1326
1047
1953
834
1833
1233
1206
1854
735
1980
1083
1395
1689
801
1962
990
1563
1563
960
2016
945
1683
1407
1059
1905
849
1872
1248
1152
1890
789
1953
1098
1359
1659
825
2031
969
1587
1569
891
2025
885
1707
1398
1074
1908
855
1845
1233
1149
1872
792
1968
1119
1344
1698
831
2001
984
1581
1548
867
1968
891
1734
1395
1071
1905
843
1881
1239
1137
1809
795
1920
1122
1323
1686
834
2121
795
1599
1590
924
2013
918
1704
1419
1041
1971
825
1830
1212
1176
1821
1041
1677
1191
1386
1704
822
1986
978
1539
1557
933
1941
903
1719
1365
1050
1941
852
1830
1266
1080
1854
807
1959
1080
1380
1695
837
1989
993
1536
1602
924
1995
885
1719
1374
1062
1974
771
1854
1269
1062
1857
816
1950
1116
1329
1737
807
1971
1068
1509
1617
939
1965
912
1656
1413
1014
1977
861
1791
1329
1035
1866
816
1932
1116
1311
1743
831
1920
1041
1476
1641
894
2007
930
1671
1470
987
1938
840
1851
1287
1092
1872
819
1845
1155
1266
1770
684
1968
1056
1473
1632
876
1995
990
1662
1494
981
1971
819
1737
1359
1119
1887
852
1914
1083
1293
1782
807
1992
1020
1500
1572
888
2025
906
1554
1515
987
1995
777
1809
1344
1092
1791
849
1899
1161
1278
1737
849
1953
1020
1503
1626
759
2019
927
1728
1356
1005
1980
807
1809
1398
1026
1938
879
1770
1170
1293
1746
819
1989
1032
1401
1677
609
2010
957
1650
1485
990
1923
852
1806
1323
1116
1875
861
1935
1134
1284
1677
843
2001
1032
1479
1632
864
2034
834
1662
1407
1029
1977
849
1860
1233
1155
1800
834
1953
1104
1311
1773
810
1992
1026
1551
1398
921
2022
909
1677
1467
1014
1944
864
1815
1275
1161
1848
810
1857
1158
1332
1758
816
2022
963
1632
1503
882
2019
891
1737
1431
1014
1944
885
1812
1158
1170
1842
735
1968
1089
1302
1722
822
1962
963
1578
1581
954
1989
864
1770
1428
984
1950
795
1869
1266
1257
1776
789
1983
1077
1311
1725
735
2007
993
1548
1569
996
1947
918
1794
1335
1059
1947
837
1857
1227
1167
1818
804
1968
1026
1455
1524
870
1938
993
1557
1587
918
1983
900
1698
1386
1041
1896
837
1854
1230
1173
1806
813
1941
1101
1350
1674
813
1995
984
1560
1563
915
1977
909
1704
1410
1062
1920
867
1833
1263
1242
1767
894
1887
1131
1422
1590
1029
1797
1050
1563
1386
1143
1704
1068
1638
1290
1275
1626
1098
1680
1212
1392
1530
1131
1683
1164
1485
1437
1185
1653
1158
1572
1368
1260
1614
1155
1608
1296
1341
1548
1155
1638
1230
1413
1470
1188
1632
1200
1488
1407
1227
1614
1185
1560
1359
1296
1578
1185
1593
1296
1359
1527
1188
1620
1236
1416
1464
1209
1620
1212
1473
1410
1239
1605
1194
1551
1362
1293
1575
1188
1590
1302
1335
1527
1194
1611
1257
1401
1470
1203
1620
1218
1467
1419
1236
1605
1200
1521
1362
1281
1584
1191
1575
1314
1347
1530
1206
1596
1266
1395
1479
1206
1611
1227
1449
1416
1233
1602
1209
1518
1371
1272
1578
1197
1563
1323
1332
1536
1200
1587
1272
1389
1497
1206
1602
1230
1443
1437
1230
1602
1215
1503
1377
1263
1584
1203
1560
1347
1317
1551
1209
1584
1290
1374
1500
1209
1590
1254
1425
1443
1221
1596
1221
1479
1395
1251
1596
1206
1539
1353
1305
1554
1200
1572
1311
1368
1512
1215
1587
1263
1410
1458
1218
1593
1224
1461
1410
1254
1581
1209
1521
1365
1293
1563
1206
1560
1314
1353
1521
1212
1584
1272
1401
1473
1221
1596
1233
1443
1416
1251
1584
1218
1512
1368
1281
1566
1209
1551
1332
1347
1530
1215
1572
1278
1392
1485
1221
1596
1239
1431
1425
1242
1587
1224
1491
1374
1278
1563
1218
1554
1338
1326
1533
1218
1578
1293
1380
1491
1221
1581
1254
1434
1443
1239
1587
1233
1479
1380
1272
1572
1221
1533
1353
1314
1542
1221
1566
1296
1356
1503
1227
1578
1269
1413
1458
1233
1590
1239
1458
1395
1266
1572
1224
1518
1359
1299
1551
1218
1560
1317
1356
1506
1218
1575
1266
1401
1473
1239
1590
1242
1452
1413
1260
1578
1227
1488
1365
1296
1551
1221
1548
1329
1335
1527
1221
1563
1287
1398
1476
1239
1584
1248
1446
1431
1245
1572
1227
1488
1383
1281
1554
1221
1533
1341
1329
1527
1212
1563
1299
1383
1488
1233
1572
1257
1428
1437
1248
1578
1236
1476
1380
1272
1566
1233
1518
1353
1323
1533
1221
1566
1314
1368
1497
1236
1569
1272
1407
1446
1245
1569
1242
1455
1407
1266
1554
1233
1545
1278
1428
1464
1254
1581
1254
1491
1467
1350
1440
1254
1521
1365
1296
1572
1197
1521
1347
1320
1452
1227
1575
1320
1398
1491
1206
1644
1191
1461
1473
1158
1626
1245
1500
1380
1266
1668
1053
1590
1368
1230
1581
1194
1623
1233
1419
1341
1137
1695
1263
1365
1515
1218
1590
1224
1464
1440
1281
1641
1191
1584
1362
1239
1683
1059
1611
1320
1365
1461
1182
1707
1200
1410
1521
1140
1689
1200
1437
1476
1176
1632
1140
1578
1404
1185
1689
1173
1449
1317
1383
1602
1113
1680
1230
1371
1572
1071
1650
1263
1383
1455
1173
1662
1086
1554
1404
1215
1704
1101
1542
1356
1317
1674
1104
1692
1278
1284
1683
1068
1608
1221
1485
1539
1149
1686
1143
1590
1365
1194
1728
1089
1674
1308
1224
1686
1101
1689
1272
1329
1512
1065
1767
1185
1386
1590
1026
1800
1197
1560
1428
1173
1767
1020
1659
1557
993
1788
1095
1809
1197
1341
1620
1029
1767
1269
1263
1656
1023
1710
1221
1374
1572
1086
1764
1107
1611
1503
1068
1806
1020
1515
1434
1203
1749
1044
1770
1047
1392
1692
993
1791
1329
1305
1728
963
1845
1191
1485
1458
1035
1737
1143
1623
1509
957
1800
1089
1425
1335
1176
1671
1005
1803
1155
1437
1581
990
1869
960
1533
1608
972
1851
1050
1323
1494
1158
1713
1065
1725
1320
1200
1737
1098
1527
1302
1338
1641
1074
1815
993
1491
1548
987
1797
1104
1542
1215
1191
1839
1068
1638
1332
1248
1497
1053
1866
1119
1287
1650
978
1812
1305
1407
1659
1035
1851
1086
1497
1560
972
1806
1050
1584
1353
1242
1740
951
1812
1323
1242
1692
954
1890
1203
1323
1647
996
1734
1128
1455
1437
1092
1860
1002
1596
1410
1116
1830
753
1716
1365
1293
1458
1038
1752
1272
1221
1704
1017
1797
1095
1425
1593
1014
1755
1119
1500
1521
1125
1743
1008
1788
1407
1197
1875
987
1707
1275
1413
1623
966
1713
1221
1362
1674
1014
1875
1167
1506
1542
945
1941
1080
1527
1431
1200
1656
1056
1740
1182
1236
1710
978
1833
1290
1257
1617
798
1875
1146
1515
1530
918
1884
1065
1413
1500
1227
1689
831
1734
1158
1263
1692
903
1842
1449
1014
1761
1095
1530
1011
1425
1575
951
1809
1080
1605
1281
1146
1986
855
1842
1251
1221
1893
1182
1371
1371
1104
1524
984
2061
645
1422
1620
987
2016
903
1515
1260
1131
1923
1179
1470
1572
951
1800
1161
1434
1377
1164
1650
1059
1815
1251
1242
1749
960
1806
1068
1482
1638
1053
2013
1365
1518
1593
1182
1818
1113
1611
1293
1101
1899
861
1878
1362
1056
1797
891
1878
1116
1494
1419
969
2007
669
1734
1743
783
2052
993
1764
1437
1104
1821
597
1812
1314
858
1800
1023
1698
1128
1476
1419
1014
1857
1101
1401
1458
1131
1815
999
1482
1386
1221
1704
999
1776
1209
1281
1662
1002
1893
1281
1350
1662
1047
1851
1191
1395
1569
1074
1857
1146
1653
1236
1074
1743
984
1776
1212
1272
1710
954
1650
1140
1473
1635
1011
1791
1026
1617
1419
1017
1878
996
1701
1356
1134
1803
909
1803
1245
1263
1725
927
1827
1125
1410
1608
948
1875
1047
1554
1494
1056
1836
999
1668
1362
1170
1770
1005
1719
1245
1326
1638
1089
1722
1182
1455
1449
1167
1653
1164
1527
1359
1278
1566
1194
1575
1311
1350
1518
1218
1575
1263
1413
1446
1239
1569
1248
1491
1401
1275
1557
1242
1515
1362
1329
1524
1230
1545
1311
1371
1485
1242
1551
1287
1419
1440
1254
1542
1260
1458
1398
1269
1542
1254
1506
1371
1323
1515
1239
1533
1338
1371
1485
1257
1545
1287
1407
1446
1260
1536
1269
1428
1407
1290
1536
1260
1485
1368
1311
1518
1254
1521
1344
1353
1491
1260
1536
1305
1392
1458
1269
1539
1272
1425
1416
1284
1533
1278
1464
1377
1299
1530
1269
1497
1359
1344
1506
1260
1518
1326
1377
1467
1266
1536
1293
1407
1431
1272
1533
1263
1440
1404
1296
1515
1269
1482
1371
1314
1512
1266
1509
1344
1365
1485
1266
1524
1317
1395
1458
1275
1530
1293
1419
1422
1287
1530
1281
1458
1377
1311
1509
1269
1491
1356
1353
1500
1272
1527
1332
1377
1467
1278
1515
1305
1404
1440
1284
1542
1281
1440
1389
1302
1524
1275
1470
1371
1317
1521
1284
1506
1338
1359
1488
1257
1518
1326
1392
1461
1278
1530
1296
1428
1419
1287
1485
1281
1449
1395
1311
1512
1278
1485
1365
1329
1500
1269
1509
1338
1371
1470
1281
1521
1311
1410
1440
1284
1521
1281
1431
1413
1299
1524
1272
1467
1386
1317
1515
1272
1497
1347
1362
1482
1275
1506
1326
1386
1455
1278
1524
1293
1419
1428
1299
1536
1275
1443
1389
1317
1512
1275
1482
1356
1338
1491
1278
1518
1335
1371
1470
1275
1521
1305
1401
1443
1290
1527
1290
1425
1401
1302
1515
1278
1467
1374
1332
1506
1278
1494
1350
1356
1479
1275
1506
1326
1389
1452
1284
1521
1311
1416
1419
1299
1515
1287
1440
1383
1311
1509
1275
1482
1359
1335
1494
1272
1497
1347
1368
1473
1281
1518
1311
1401
1452
1293
1512
1293
1425
1410
1299
1512
1281
1455
1380
1323
1503
1275
1482
1356
1341
1488
1275
1497
1338
1380
1458
1290
1515
1308
1407
1437
1293
1515
1296
1431
1404
1302
1509
1272
1458
1380
1335
1494
1287
1491
1350
1344
1476
1281
1515
1332
1386
1452
1296
1515
1311
1413
1428
1296
1521
1296
1437
1392
1305
1515
1284
1476
1368
1329
1497
1278
1497
1347
1356
1476
1278
1509
1335
1392
1452
1290
1518
1302
1422
1431
1302
1509
1287
1443
1389
1311
1500
1284
1479
1368
1338
1485
1278
1494
1338
1368
1473
1290
1503
1323
1410
1443
1299
1512
1299
1425
1416
1305
1497
1287
1455
1386
1329
1500
1287
1473
1365
1344
1488
1284
1503
1332
1374
1452
1290
1509
1320
1404
1437
1296
1512
1296
1425
1407
1311
1506
1299
1443
1383
1323
1500
1281
1473
1359
1347
1476
1281
1503
1335
1377
1461
1296
1512
1320
1398
1431
1299
1497
1281
1431
1467
1254
1515
1335
1413
1374
1314
1656
1227
1440
1320
1335
1533
1338
1395
1449
1284
1572
1254
1482
1266
1311
1692
1062
1626
1404
1323
1686
1260
1437
1269
1548
1461
1215
1680
1131
1455
1671
882
1806
1317
1977
1167
1293
1581
1152
1485
1788
909
1695
975
1803
1227
1317
1392
1197
1824
1008
1527
1587
1233
1854
861
1575
1413
1155
1794
1071
1332
1308
1071
1521
1170
1506
1212
1494
1509
684
2064
771
1764
1053
1218
1812
1053
1716
1308
1227
1359
960
1923
1056
1362
1707
996
1839
1095
1482
1608
1137
1953
921
1719
1452
1173
1728
1008
1533
1488
1218
1590
1137
1764
1032
1374
1671
999
1827
1110
1647
1257
1044
1968
930
1590
1401
1254
1731
1143
1269
1377
1440
1491
897
1869
870
1425
1665
762
1878
1308
1092
1821
864
1908
1062
1641
1392
1227
1680
1212
1299
1290
1410
1692
930
1773
1206
1461
1917
552
1932
1365
1509
1572
939
1857
1035
1500
1431
1164
1635
912
1938
1305
1248
1647
951
2043
978
1398
1893
930
1983
942
1566
1608
807
1869
1062
1644
1356
1161
1908
594
1899
1254
1260
1716
963
1788
1266
1347
1749
900
1884
1098
1626
1536
825
1902
1080
1668
903
1236
1890
909
1770
1425
1083
1677
966
1818
1185
1434
1632
1191
1692
1164
1491
1611
1101
1803
987
1731
1047
1188
1851
1044
1740
1314
1260
1737
837
1881
1257
1494
1662
1008
1752
1161
1482
1461
1029
1854
1071
1581
1380
1233
1665
1128
1611
1080
1314
1965
696
1908
1173
1449
1638
1383
1839
1143
1557
1503
1050
1899
1155
1413
1443
1122
1809
960
1602
1320
1098
1785
753
1872
1107
1371
1659
1029
1776
1023
1560
1521
1020
1884
1023
1704
1407
1101
1938
729
1740
1332
1071
1782
924
1854
1140
1338
1596
894
1839
996
1518
1521
873
2070
936
1629
1557
966
1884
1095
1371
1359
1287
1683
960
1827
1212
1302
1653
978
1998
993
1503
1587
933
1899
1005
1599
1602
1050
1737
972
1734
1299
1140
1968
723
1860
1302
1200
1893
702
1818
1155
1395
1635
933
1746
999
1626
1560
1068
1779
1224
1398
1437
1125
1848
981
1791
1335
1218
1773
954
1605
1176
1374
1680
825
1902
1032
1563
1431
978
1983
966
1788
1362
1143
1872
939
1728
1290
1203
1770
1047
1800
1179
1215
1698
939
1980
945
1512
1512
978
1917
1146
1560
1563
1020
1899
894
1692
1302
1167
1674
903
1890
1158
1098
1719
987
1872
1017
1443
1620
915
1992
897
1608
1515
1035
1998
861
1707
1383
1173
1905
864
1833
1269
1254
1704
1035
1818
960
1446
1650
873
1926
1035
1497
1506
1011
2034
726
1764
1473
1110
1848
927
1908
1203
1227
1776
903
1962
1062
1356
1671
891
1908
1110
1509
1539
1032
1809
1059
1599
1380
1029
1893
972
1758
1293
1182
1785
927
1752
1227
1251
1647
951
1605
1149
1584
1548
993
1890
1008
1659
1455
867
1917
987
1719
1347
1146
1791
939
1869
1230
1134
1617
1017
1938
1104
1434
1608
933
1710
1005
1620
1512
1041
1875
966
1680
1407
939
1785
891
1851
1383
1074
1770
927
1812
1134
1428
1599
996
1953
1074
1593
1500
1026
1938
897
1719
1377
1107
1695
948
1863
1194
1272
1785
912
1887
1113
1311
1656
957
1857
1095
1542
1608
903
1920
972
1638
1431
1065
1920
957
1788
1350
1095
1767
876
1782
1023
1419
1716
774
1878
1200
1452
1632
939
1920
1044
1590
1503
1092
1710
912
1746
1320
1107
1809
927
1749
1278
1257
1641
894
1914
1098
1362
1608
945
1878
1026
1542
1539
933
1941
810
1755
1386
1116
1851
945
1740
1251
972
1833
912
1833
1188
1401
1599
939
1941
1047
1449
1623
984
1959
999
1659
1476
1035
1878
888
1743
1335
1179
1881
795
1821
1275
1263
1713
894
1902
1224
1431
1698
942
1902
1020
1572
1563
858
1896
996
1689
1386
1101
1863
837
1806
1308
1221
1776
867
1914
1167
1359
1626
897
1983
918
1560
1668
768
1938
1032
1533
1467
1080
1914
918
1767
1335
1053
1860
921
1899
942
1308
1752
903
1890
1053
1443
1746
777
1953
1041
1560
1494
1008
1917
933
1713
1413
936
1860
930
1830
1248
1224
1749
894
1866
1161
1305
1674
885
1968
1002
1569
1539
1038
1950
969
1635
1449
1080
1887
948
1671
1341
1233
1740
921
1851
1194
1275
1725
936
1911
1134
1491
1704
933
1965
1014
1605
1611
915
1968
912
1773
1299
1197
1743
960
1872
1122
1281
1722
858
1935
1257
1215
1764
1002
1941
1062
1506
1506
924
1866
990
1671
1506
1059
1818
933
1710
1332
1101
1830
990
1788
1254
1305
1680
996
1854
1110
1452
1662
858
1932
1011
1623
1476
990
1896
936
1716
1368
1116
1848
705
1869
1263
1218
1758
894
1899
1128
1422
1581
915
1917
1035
1527
1548
966
1914
966
1665
1404
1071
1860
930
1764
1281
1182
1791
897
1842
1170
1311
1671
918
1863
1074
1485
1569
999
1857
1026
1623
1449
1125
1788
1041
1698
1323
1284
1635
1065
1695
1221
1362
1527
1137
1659
1173
1500
1404
1227
1617
1170
1551
1335
1311
1539
1197
1575
1284
1371
1485
1221
1590
1257
1425
1437
1245
1569
1233
1491
1377
1281
1554
1230
1542
1353
1335
1524
1233
1569
1314
1383
1482
1242
1569
1263
1419
1440
1257
1554
1245
1473
1383
1281
1548
1230
1509
1347
1329
1527
1233
1551
1308
1371
1488
1230
1554
1275
1413
1443
1263
1554
1254
1455
1407
1284
1551
1257
1500
1362
1308
1527
1239
1527
1335
1359
1482
1245
1548
1302
1392
1464
1257
1563
1278
1440
1410
1269
1551
1260
1479
1374
1296
1530
1236
1530
1344
1347
1503
1242
1539
1314
1380
1470
1260
1548
1284
1422
1428
1272
1548
1251
1452
1392
1290
1542
1257
1500
1356
1323
1515
1251
1530
1341
1362
1488
1266
1545
1299
1398
1455
1263
1545
1272
1434
1419
1275
1548
1260
1464
1380
1296
1524
1254
1515
1338
1344
1497
1251
1530
1317
1377
1476
1254
1545
1287
1407
1443
1275
1539
1269
1452
1398
1284
1536
1251
1491
1371
1323
1518
1254
1524
1341
1356
1500
1260
1545
1305
1392
1470
1269
1545
1281
1443
1419
1278
1530
1266
1470
1383
1305
1530
1257
1506
1359
1332
1500
1263
1527
1335
1380
1476
1266
1539
1296
1413
1443
1272
1536
1269
1434
1401
1293
1533
1263
1491
1365
1311
1506
1254
1521
1338
1359
1491
1263
1533
1308
1392
1470
1266
1539
1287
1425
1419
1281
1536
1266
1452
1386
1305
1524
1269
1497
1359
1332
1506
1251
1521
1329
1374
1470
1272
1536
1299
1407
1446
1275
1536
1260
1434
1404
1299
1530
1260
1479
1371
1320
1518
1260
1506
1338
1347
1488
1260
1530
1302
1389
1452
1269
1527
1287
1401
1425
1272
1533
1272
1449
1386
1302
1503
1260
1488
1362
1329
1503
1260
1521
1335
1368
1476
1269
1533
1302
1404
1449
1275
1530
1281
1440
1404
1290
1527
1278
1461
1371
1320
1512
1266
1515
1347
1362
1488
1269
1527
1314
1395
1452
1284
1527
1293
1416
1419
1284
1539
1275
1452
1386
1311
1521
1263
1488
1359
1329
1503
1260
1527
1332
1377
1485
1272
1527
1296
1410
1446
1284
1527
1284
1434
1398
1296
1527
1275
1470
1371
1323
1503
1266
1497
1320
1356
1485
1272
1521
1314
1389
1452
1278
1521
1293
1428
1431
1302
1524
1272
1452
1383
1308
1512
1272
1467
1362
1332
1500
1260
1524
1332
1371
1470
1275
1521
1302
1404
1452
1290
1527
1281
1434
1398
1299
1518
1269
1473
1371
1329
1506
1266
1503
1347
1353
1485
1269
1503
1326
1395
1452
1278
1524
1293
1410
1419
1290
1527
1275
1449
1389
1317
1509
1275
1488
1356
1341
1497
1263
1509
1332
1356
1473
1281
1518
1299
1410
1434
1290
1527
1284
1440
1401
1299
1521
1284
1473
1377
1329
1503
1284
1500
1347
1356
1482
1272
1515
1314
1392
1455
1281
1524
1299
1407
1431
1293
1527
1278
1443
1395
1311
1512
1275
1482
1353
1332
1491
1272
1497
1353
1368
1470
1275
1515
1320
1398
1443
1287
1518
1302
1428
1416
1296
1521
1287
1455
1395
1314
1506
1275
1488
1362
1344
1491
1269
1512
1338
1374
1473
1275
1518
1299
1413
1440
1296
1524
1290
1437
1401
1308
1515
1275
1461
1377
1323
1500
1284
1497
1347
1362
1485
1275
1515
1326
1389
1452
1296
1521
1299
1419
1431
1293
1524
1284
1440
1401
1302
1512
1278
1470
1371
1329
1503
1278
1494
1347
1359
1482
1269
1515
1314
1392
1449
1287
1527
1311
1419
1425
1296
1527
1278
1437
1395
1320
1512
1281
1479
1362
1332
1500
1281
1500
1350
1380
1479
1284
1515
1317
1407
1437
1290
1524
1296
1434
1416
1302
1512
1281
1458
1386
1323
1503
1278
1482
1362
1341
1485
1275
1509
1335
1389
1467
1284
1512
1305
1413
1431
1293
1518
1296
1437
1407
1314
1518
1272
1467
1374
1323
1509
1275
1482
1350
1347
1482
1275
1509
1329
1389
1458
1287
1515
1305
1416
1413
1299
1512
1290
1440
1380
1314
1512
1284
1452
1365
1341
1497
1275
1491
1344
1350
1473
1272
1515
1320
1395
1452
1287
1518
1299
1419
1419
1296
1512
1281
1446
1407
1320
1509
1275
1473
1365
1341
1491
1281
1503
1338
1368
1470
1287
1497
1314
1398
1437
1296
1515
1296
1434
1410
1302
1512
1278
1452
1380
1326
1497
1281
1485
1353
1347
1482
1281
1509
1329
1380
1467
1275
1518
1305
1410
1431
1290
1518
1290
1434
1404
1302
1512
1281
1461
1362
1338
1497
1281
1491
1350
1359
1476
1278
1506
1326
1395
1452
1290
1509
1308
1419
1434
1305
1515
1287
1440
1401
1311
1503
1281
1467
1365
1341
1491
1275
1485
1341
1371
1473
1284
1506
1323
1401
1446
1302
1515
1299
1428
1413
1299
1509
1284
1443
1389
1326
1503
1275
1482
1350
1347
1488
1278
1500
1338
1371
1467
1293
1515
1317
1401
1449
1290
1515
1296
1422
1410
1302
1515
1281
1452
1377
1323
1503
1287
1479
1353
1347
1485
1281
1509
1326
1383
1455
1293
1512
1302
1416
1434
1317
1479
1296
1452
1428
1308
1503
1317
1428
1386
1320
1503
1275
1446
1377
1311
1515
1260
1488
1383
1299
1536
1212
1536
1320
1464
1455
1185
1575
1344
1341
1521
1233
1587
1182
1491
1476
1143
1749
1095
1530
1482
1161
1737
1107
1614
1353
1236
1773
1134
1560
1248
1326
1599
1038
1737
1200
1335
1677
1110
1689
1167
1533
1509
1089
1884
1035
1575
1440
1176
1707
1197
1533
1404
1206
1719
921
1758
1164
1314
1638
1068
1731
1194
1479
1254
1089
1839
1062
1518
1491
1113
1644
1173
1590
1305
1176
1845
921
1806
1239
1329
1629
987
1956
1032
1389
1593
1038
1887
1008
1560
1380
1143
1842
1020
1638
1356
1227
1584
975
1800
1206
1311
1758
789
1896
1206
1356
1605
1086
1746
1065
1650
1434
1089
1965
882
1779
1317
1218
1758
864
1824
1209
1371
1635
999
1617
1209
1467
1575
1035
1872
1014
1623
1419
1086
1869
933
1695
1302
1179
1725
915
1776
1158
1317
1671
933
1944
1038
1449
1569
1056
1818
1014
1641
1431
1077
1896
876
1683
1320
1236
1779
888
1809
1179
1335
1605
948
1932
1125
1458
1536
987
1890
972
1587
1527
1032
1836
1014
1707
1392
1185
1728
975
1791
1233
1275
1674
870
1854
1197
1344
1551
963
1938
1029
1572
1521
1062
1812
951
1626
1440
1044
1830
981
1695
1236
1365
1638
927
1809
1158
1389
1689
960
1872
1083
1551
1563
1008
1884
1020
1656
1371
1125
1896
894
1749
1407
960
1806
1014
1803
1161
1332
1596
924
1890
1089
1488
1482
987
1884
1020
1614
1458
999
1860
1020
1668
1302
1146
1761
969
1794
1224
1314
1548
927
1869
1065
1428
1656
840
1938
1119
1455
1506
1137
1788
930
1740
1377
1164
1794
930
1782
1263
1257
1806
798
1884
1155
1410
1515
951
1893
1107
1434
1632
933
1923
1062
1671
1368
1140
1833
939
1728
1317
1161
1767
945
1797
1212
1377
1608
1035
1755
1110
1404
1569
951
1875
1002
1644
1545
1023
1863
978
1698
1377
1200
1857
885
1815
1215
1239
1710
951
1758
1065
1368
1521
933
1917
1053
1572
1557
999
1914
936
1635
1326
1164
1794
924
1806
1200
1197
1749
954
1812
1209
1338
1662
906
1860
1074
1512
1563
999
1866
1026
1647
1401
1116
1863
948
1767
1266
1170
1818
936
1782
1215
1317
1632
933
1893
1122
1452
1647
1011
1902
927
1599
1488
1002
1896
948
1659
1314
1215
1764
939
1806
1221
1215
1761
810
1863
1113
1434
1500
939
1917
1032
1524
1551
1026
1854
969
1719
1362
1140
1869
798
1854
1197
1206
1776
912
1860
1086
1383
1641
939
1881
1065
1497
1551
951
1881
1059
1515
1407
1065
1920
879
1791
1341
1167
1779
924
1935
1056
1347
1656
945
1851
1083
1467
1596
951
1845
1110
1521
1443
999
1899
957
1788
1275
1062
1848
1002
1893
1290
1167
1746
984
1731
1149
1425
1587
951
1920
1101
1479
1488
1041
1938
906
1734
1371
1128
1926
837
1797
1338
1143
1761
1023
1791
1143
1269
1743
873
1974
960
1512
1566
909
1863
1053
1569
1464
1203
1689
972
1737
1278
1143
1854
852
1815
1197
1275
1671
951
1878
1098
1470
1638
969
1845
1062
1584
1497
1047
1962
843
1719
1377
1128
1818
906
1929
1047
1233
1776
909
1860
1140
1389
1641
861
1902
1089
1560
1578
1032
1902
1041
1692
1293
1119
1875
969
1710
1308
1194
1794
882
1917
1095
1350
1695
960
1746
1137
1479
1602
981
1878
1017
1596
1440
1032
1893
1011
1677
1353
1161
1791
903
1815
1323
1239
1782
957
1860
1146
1344
1647
942
1911
1062
1560
1425
1062
1905
963
1707
1383
1068
1821
963
1776
1197
1230
1764
924
1857
1125
1398
1692
834
1914
984
1539
1593
933
1932
978
1644
1485
1014
1869
954
1704
1293
1140
1791
921
1851
1155
1320
1617
897
1896
1086
1503
1542
993
1905
1029
1590
1464
945
1911
972
1722
1323
1083
1821
915
1935
1023
1341
1734
888
1878
1143
1443
1701
873
1959
1020
1554
1512
1005
1902
945
1629
1428
1023
1899
894
1863
1146
1254
1788
924
1830
1152
1368
1644
891
1887
1089
1494
1584
978
1902
1005
1623
1488
1161
1827
987
1746
1356
1134
1812
915
1860
1104
1305
1773
873
1896
1104
1437
1518
1017
1848
1002
1599
1479
1005
1926
918
1794
1296
1131
1866
816
1830
1239
1242
1695
912
1887
1128
1398
1668
807
1962
1071
1626
1452
996
1902
849
1734
1431
1116
1845
951
1779
1305
1185
1743
882
1956
1062
1371
1683
921
1899
1074
1506
1602
918
1947
1074
1632
1476
1077
1881
948
1641
1326
1164
1899
711
1851
1338
1119
1725
930
1881
990
1512
1575
957
1926
1020
1572
1515
1029
1899
918
1761
1269
1179
1887
834
1824
1236
1353
1560
1011
1767
1092
1431
1587
876
1950
1008
1590
1440
1053
1881
1041
1665
1326
1119
1875
936
1779
1341
1161
1785
927
1926
1128
1374
1593
921
1884
1080
1566
1557
1065
1836
1008
1692
1350
1107
1905
927
1761
1272
1167
1797
891
1761
1185
1302
1698
897
1899
1071
1479
1584
993
1836
1020
1623
1473
1041
1884
930
1728
1317
1149
1812
891
1824
1200
1269
1752
843
1947
1035
1464
1641
903
1911
1005
1590
1488
1014
1884
948
1701
1356
1110
1830
900
1815
1233
1233
1740
888
1869
1140
1383
1650
924
1899
1050
1536
1548
1020
1890
981
1653
1425
1173
1806
1074
1725
1266
1278
1545
1098
1668
1164
1422
1449
1164
1638
1179
1539
1389
1257
1596
1170
1581
1323
1326
1539
1185
1590
1257
1392
1473
1206
1593
1239
1449
1422
1260
1572
1227
1512
1374
1287
1566
1218
1551
1329
1329
1515
1224
1569
1281
1392
1479
1230
1581
1248
1440
1422
1257
1569
1230
1482
1383
1287
1551
1224
1542
1347
1335
1521
1233
1560
1305
1383
1482
1233
1581
1254
1434
1431
1251
1566
1236
1473
1386
1275
1566
1233
1524
1350
1320
1533
1230
1548
1314
1368
1482
1242
1560
1275
1419
1449
1257
1563
1248
1455
1404
1275
1554
1245
1509
1362
1311
1536
1236
1536
1329
1359
1500
1239
1557
1293
1398
1464
1245
1563
1257
1437
1422
1263
1554
1245
1485
1386
1293
1545
1242
1524
1344
1335
1512
1239
1554
1311
1383
1476
1245
1554
1275
1419
1437
1248
1557
1245
1461
1395
1290
1554
1245
1512
1356
1314
1530
1245
1542
1332
1374
1494
1251
1551
1284
1404
1455
1257
1557
1260
1437
1407
1272
1551
1254
1491
1371
1302
1536
1242
1521
1341
1353
1509
1251
1539
1311
1395
1470
1257
1557
1275
1425
1428
1266
1557
1239
1464
1389
1302
1542
1251
1509
1353
1323
1521
1251
1533
1326
1374
1479
1251
1548
1290
1407
1449
1266
1551
1263
1443
1416
1287
1545
1251
1491
1374
1308
1524
1242
1524
1347
1356
1500
1254
1545
1302
1395
1476
1257
1548
1272
1425
1416
1278
1551
1254
1467
1377
1299
1533
1248
1512
1356
1335
1518
1248
1539
1326
1377
1479
1260
1542
1287
1404
1449
1263
1551
1269
1449
1395
1284
1536
1254
1494
1368
1317
1518
1242
1524
1341
1356
1494
1254
1542
1299
1401
1464
1269
1542
1272
1431
1419
1272
1545
1260
1476
1383
1299
1530
1254
1500
1341
1338
1512
1257
1527
1317
1377
1470
1263
1539
1287
1425
1443
1263
1545
1266
1449
1386
1299
1539
1254
1491
1365
1314
1518
1251
1527
1332
1359
1488
1260
1533
1299
1404
1458
1266
1548
1275
1431
1416
1281
1539
1263
1473
1374
1302
1527
1251
1515
1350
1347
1506
1254
1533
1320
1392
1461
1275
1533
1287
1425
1431
1281
1554
1266
1458
1389
1302
1530
1260
1491
1365
1320
1518
1245
1527
1332
1371
1479
1269
1539
1296
1410
1452
1272
1542
1269
1446
1407
1296
1536
1263
1476
1371
1317
1518
1245
1512
1338
1353
1497
1263
1533
1308
1395
1458
1269
1533
1290
1422
1422
1278
1536
1266
1464
1383
1311
1527
1266
1491
1353
1332
1506
1260
1542
1329
1380
1488
1266
1539
1290
1407
1437
1278
1536
1266
1434
1401
1290
1527
1260
1488
1365
1314
1515
1260
1515
1338
1365
1500
1263
1533
1305
1395
1458
1272
1533
1281
1431
1416
1287
1539
1266
1467
1380
1308
1521
1260
1506
1347
1347
1497
1269
1524
1323
1383
1464
1272
1536
1287
1416
1434
1272
1536
1254
1452
1395
1302
1524
1263
1494
1362
1329
1506
1260
1515
1341
1371
1479
1272
1530
1293
1407
1449
1272
1542
1284
1443
1407
1287
1527
1260
1473
1374
1317
1518
1242
1512
1347
1347
1494
1266
1527
1314
1404
1452
1275
1542
1281
1434
1419
1284
1530
1272
1458
1383
1314
1515
1251
1503
1350
1338
1497
1263
1521
1323
1374
1467
1269
1530
1281
1410
1437
1290
1533
1272
1446
1383
1299
1524
1266
1491
1368
1323
1503
1263
1515
1338
1365
1482
1266
1527
1302
1404
1446
1281
1536
1281
1434
1404
1296
1530
1275
1464
1374
1326
1512
1263
1500
1341
1353
1485
1269
1524
1320
1392
1458
1275
1527
1287
1428
1428
1287
1533
1269
1458
1383
1308
1512
1266
1494
1356
1329
1500
1266
1524
1326
1383
1476
1269
1536
1296
1416
1446
1287
1527
1272
1446
1392
1308
1521
1269
1479
1374
1320
1509
1272
1512
1335
1362
1479
1269
1524
1305
1407
1443
1284
1536
1281
1431
1416
1296
1524
1269
1464
1362
1320
1518
1263
1500
1353
1350
1491
1251
1515
1326
1380
1461
1275
1524
1299
1422
1434
1290
1530
1266
1449
1404
1299
1521
1272
1485
1365
1332
1506
1266
1509
1347
1359
1479
1266
1518
1317
1395
1446
1284
1530
1293
1425
1422
1290
1530
1275
1455
1377
1308
1518
1260
1494
1350
1338
1497
1272
1521
1329
1377
1467
1275
1530
1302
1410
1440
1293
1524
1284
1443
1404
1299
1518
1260
1473
1371
1332
1506
1269
1497
1347
1350
1488
1275
1515
1317
1389
1458
1287
1515
1293
1422
1425
1296
1524
1272
1449
1389
1311
1512
1272
1488
1356
1332
1494
1281
1509
1338
1377
1476
1281
1524
1308
1407
1449
1290
1521
1281
1434
1410
1296
1524
1272
1464
1371
1329
1503
1269
1491
1338
1353
1485
1257
1524
1326
1380
1458
1284
1521
1293
1416
1428
1287
1521
1278
1449
1386
1302
1512
1272
1482
1374
1335
1500
1278
1500
1341
1371
1476
1278
1518
1317
1404
1446
1287
1521
1293
1440
1416
1302
1524
1272
1452
1374
1317
1509
1272
1497
1353
1347
1491
1275
1515
1332
1386
1464
1281
1521
1305
1419
1434
1299
1521
1278
1443
1395
1308
1521
1272
1470
1371
1335
1503
1269
1500
1326
1359
1476
1278
1518
1320
1392
1449
1287
1518
1296
1425
1416
1299
1527
1275
1449
1383
1317
1512
1275
1485
1350
1335
1491
1269
1512
1335
1386
1464
1284
1521
1305
1410
1434
1290
1515
1290
1434
1398
1308
1518
1275
1461
1362
1335
1506
1275
1494
1356
1353
1488
1278
1503
1320
1389
1458
1287
1524
1299
1419
1428
1296
1518
1278
1446
1386
1305
1509
1275
1476
1356
1335
1491
1278
1506
1335
1371
1473
1275
1521
1311
1404
1446
1287
1518
1299
1434
1407
1299
1521
1257
1461
1374
1317
1503
1275
1497
1350
1344
1482
1272
1518
1320
1389
1455
1287
1524
1308
1419
1422
1296
1524
1281
1443
1392
1305
1512
1272
1476
1362
1335
1497
1278
1497
1338
1368
1476
1275
1515
1323
1404
1449
1290
1515
1293
1428
1419
1302
1515
1266
1458
1383
1323
1494
1281
1482
1359
1332
1485
1272
1512
1332
1386
1467
1287
1509
1305
1422
1428
1299
1518
1284
1440
1395
1311
1512
1278
1467
1365
1335
1494
1275
1494
1338
1359
1479
1278
1509
1320
1383
1440
1287
1515
1299
1431
1422
1308
1518
1278
1455
1383
1320
1506
1275
1482
1353
1344
1485
1278
1506
1335
1377
1470
1284
1527
1302
1410
1431
1293
1509
1284
1437
1398
1308
1509
1281
1464
1368
1332
1497
1278
1494
1347
1353
1476
1281
1509
1323
1395
1446
1269
1521
1293
1422
1422
1305
1518
1278
1446
1383
1320
1506
1278
1476
1353
1347
1488
1278
1500
1329
1380
1470
1281
1512
1314
1410
1428
1293
1512
1296
1440
1410
1305
1512
1278
1464
1371
1329
1497
1281
1494
1344
1356
1461
1278
1506
1329
1389
1455
1287
1521
1302
1419
1419
1305
1515
1284
1449
1389
1317
1509
1281
1470
1356
1338
1497
1284
1506
1335
1371
1464
1281
1512
1323
1410
1434
1302
1515
1290
1431
1410
1311
1512
1278
1461
1359
1329
1494
1275
1485
1350
1350
1479
1278
1506
1329
1392
1458
1287
1518
1302
1416
1428
1302
1512
1290
1446
1395
1323
1497
1278
1476
1371
1329
1503
1293
1446
1314
1476
1305
1302
1698
1077
1443
1569
1260
1539
1257
1449
1368
1248
1665
1122
1452
1575
1170
1773
1059
1446
1533
1224
1767
1077
1509
1509
1296
1659
1173
1728
1182
1332
1557
954
1827
1296
1284
1662
1134
1626
1392
1233
1605
1077
1896
1137
1518
1530
1044
1599
1260
1017
1500
1209
1827
951
1743
1311
1263
1677
924
1908
1233
1206
1704
993
1698
1041
1560
1581
1062
1965
729
1701
1413
978
1872
966
1791
1248
1332
1497
888
1881
1194
1338
1635
924
1725
1089
1608
1524
1002
1884
951
1668
1311
1110
1839
930
1776
1257
1176
1686
954
1872
1104
1425
1596
906
1926
1071
1554
1503
996
1776
1101
1557
1407
1062
1857
933
1854
1350
1188
1794
846
1935
1017
1365
1710
1026
1812
1107
1662
1335
1125
1881
975
1728
1347
1140
1887
891
1821
1287
1326
1713
882
1785
900
1530
1695
861
1932
882
1578
1536
870
1794
963
1716
1347
1125
1869
837
1848
1254
1317
1695
1011
1833
921
1551
1599
957
1989
963
1626
1428
966
1950
975
1719
1284
1143
1821
936
1833
1191
1278
1920
576
1956
1131
1380
1620
945
1974
891
1653
1386
1017
1857
906
1695
1410
1227
1779
936
1803
1260
1284
1707
912
1959
1062
1410
1635
957
1848
1038
1566
1509
993
1896
933
1698
1416
1083
1833
924
1845
1188
1239
1827
696
1944
1308
1257
1671
963
1815
1041
1545
1557
978
1941
840
1758
1335
1107
1890
936
1797
1218
1167
1695
933
1902
1107
1449
1626
891
1869
1134
1455
1584
1065
1875
1128
1590
1260
1137
1947
795
1779
1305
1263
1695
933
1809
1218
1314
1731
828
1860
1092
1443
1536
1050
1857
1053
1677
1341
1128
1932
897
1653
1317
1191
1782
915
1779
1206
1389
1440
969
1875
1077
1422
1509
990
1926
954
1692
1428
1215
1713
990
1662
1329
1206
1776
912
1866
1215
1254
1794
816
1905
1122
1488
1599
936
1890
912
1710
1545
921
1920
876
1758
1302
1140
1836
786
1881
1284
1071
1710
915
2004
885
1467
1650
942
1875
1041
1584
1437
1080
1833
861
1782
1263
1062
1881
993
1713
1257
1398
1677
984
1800
1164
1419
1590
951
1923
1044
1632
1488
1044
1797
1002
1671
1242
1167
1785
951
1788
1194
1266
1713
891
1884
1035
1437
1599
963
1770
1056
1623
1536
1002
1941
912
1701
1356
1182
1755
900
1845
1122
1284
1779
894
1878
1152
1374
1674
969
1725
1092
1638
1521
1035
1887
819
1704
1410
1125
1878
792
1818
1245
1203
1785
816
1884
1134
1323
1566
957
1899
1116
1167
1602
1032
1902
1029
1476
1503
1158
1863
912
1752
1257
1206
1779
897
1872
1161
1272
1761
963
1893
1041
1578
1383
1011
1935
990
1581
1395
1062
1782
999
1755
1284
1173
2028
528
1935
1179
1335
1644
930
1875
1041
1536
1494
1020
1971
972
1710
1551
840
1938
897
1806
1323
1167
1782
894
1815
1017
1359
1707
894
1878
1098
1461
1578
1050
1848
963
1683
1470
1161
1866
945
1854
1206
1230
1767
1002
1791
1224
1419
1596
975
1911
999
1554
1554
999
1869
939
1692
1419
1137
1830
879
1800
1257
1281
1593
921
1893
1107
1461
1587
897
1914
1071
1446
1494
1044
1908
954
1737
1248
1062
1881
969
1815
1284
1182
1770
897
1851
1137
1410
1575
942
1950
1050
1560
1533
999
1923
945
1659
1341
1101
1824
939
1836
1248
1215
1626
921
1896
1143
1395
1635
990
1956
882
1596
1479
996
1884
924
1734
1368
1149
1746
936
1761
1275
1176
1785
855
1878
1194
1266
1572
930
1944
1104
1554
1557
981
1935
915
1734
1341
1053
1905
939
1788
1266
1200
1770
948
1716
1170
1320
1725
903
1920
975
1533
1593
915
1887
1002
1584
1488
1029
1782
972
1758
1326
1200
1761
912
1872
1143
1233
1737
933
1863
1092
1461
1626
972
1878
1023
1605
1446
1092
1794
918
1797
1287
1161
1830
891
1785
1227
1272
1617
942
1839
1083
1434
1623
888
1899
1026
1530
1590
1056
1884
954
1716
1335
1185
1755
927
1830
1251
1167
1785
909
1941
1074
1380
1686
924
1911
1032
1581
1545
831
1956
954
1617
1440
1146
1824
924
1818
1200
1215
1755
882
1917
1095
1392
1668
903
1947
1044
1506
1539
1002
1875
951
1656
1389
1113
1896
909
1767
1227
1182
1791
927
1824
1116
1407
1596
912
1926
1059
1530
1542
981
1911
939
1683
1548
1083
1878
945
1728
1317
1203
1773
798
1881
1170
1356
1662
873
1881
954
1515
1602
999
1800
1023
1671
1368
1095
1863
942
1797
1236
1131
1815
933
1851
1188
1338
1716
861
1803
1092
1527
1509
978
1905
1002
1683
1413
1110
1851
1008
1716
1284
1176
1821
891
1926
1005
1344
1719
948
1836
1110
1455
1602
1020
1719
1029
1641
1458
1044
1869
930
1746
1338
1257
1668
936
1905
1218
1269
1719
900
1887
1041
1479
1683
894
1944
957
1602
1524
990
1815
1059
1710
1359
1128
1836
909
1836
1194
1209
1767
837
1890
1161
1374
1635
1008
1749
978
1563
1533
999
1911
963
1713
1350
1212
1737
969
1803
1242
1206
1764
906
1776
1107
1398
1731
894
1872
1062
1485
1548
1128
1725
939
1695
1419
1095
1770
915
1806
1317
1068
1722
903
1881
1134
1347
1716
846
1830
1098
1533
1578
939
1893
966
1629
1431
1266
1728
981
1785
1308
1185
1785
894
1869
1161
1335
1575
957
1857
1083
1503
1587
978
1881
990
1602
1476
1086
1929
891
1755
1314
1185
1803
1035
1743
1209
1326
1689
897
1896
1059
1428
1623
969
1917
948
1611
1509
1008
1920
939
1842
1131
1215
1872
867
1854
1155
1317
1719
909
1863
1098
1503
1446
1011
1950
1014
1626
1488
1011
1872
1014
1674
1377
1179
1797
942
1710
1209
1437
1506
942
1968
1107
1458
1617
969
1947
927
1608
1479
1026
1863
972
1746
1362
1053
1827
954
1734
1263
1260
1749
948
1719
1158
1413
1569
945
1938
1116
1413
1539
1053
1869
966
1659
1302
1131
1881
882
1722
1272
1260
1686
897
1857
1038
1413
1641
921
1929
1005
1575
1569
945
1926
855
1737
1356
1107
1878
918
1821
1266
1233
1788
663
1935
1152
1395
1671
852
1899
1047
1572
1554
960
1956
867
1743
1329
1185
1749
939
1800
1227
1170
1773
897
1884
1092
1443
1611
960
1860
1026
1572
1479
981
1977
888
1641
1389
1050
1899
870
1800
1284
1203
1767
837
1872
1164
1350
1650
906
1911
1050
1587
1566
978
1857
1005
1629
1386
1098
1875
951
1740
1218
1209
1794
885
1938
1101
1380
1791
780
1947
1095
1443
1536
1035
1899
912
1680
1410
1083
1899
831
1746
1275
1230
1728
894
1845
1155
1401
1650
903
1908
999
1602
1569
987
1935
873
1701
1431
1074
1872
1092
1608
1323
1233
1773
897
1863
1137
1371
1650
918
1839
1101
1593
1506
942
1932
978
1641
1413
1149
1812
969
1656
1239
1215
1776
876
1878
1155
1410
1491
924
1929
1125
1416
1566
939
1911
996
1653
1440
1017
1866
915
1809
1236
1191
1764
882
1890
1140
1290
1713
900
1920
1047
1482
1629
855
1911
1005
1614
1473
960
1914
933
1779
1320
1116
1854
912
1872
1194
1236
1725
900
1917
1158
1227
1608
975
1938
990
1608
1449
1005
1857
966
1722
1368
1137
1833
906
1836
1203
1185
1734
867
1905
1182
1230
1623
936
1941
978
1572
1533
1005
1911
906
1650
1434
1074
1884
816
1836
1230
1230
1803
849
1851
1083
1362
1656
906
1935
1020
1539
1593
948
1905
999
1644
1323
1107
1857
909
1719
1224
1206
1761
888
1878
1131
1398
1632
885
1926
1041
1581
1569
1038
1908
954
1704
1389
1089
1923
843
1833
1308
1203
1710
915
1911
1155
1317
1680
906
1956
975
1554
1515
981
1911
921
1635
1374
1104
1911
903
1767
1296
1215
1740
861
1896
1161
1323
1680
870
1953
1068
1458
1515
978
1938
984
1617
1476
1053
1935
858
1776
1323
1149
1803
867
1860
1194
1311
1677
894
1908
1062
1551
1464
972
1920
981
1647
1416
999
1938
903
1749
1347
1083
1812
885
1887
1083
1275
1800
834
1884
1116
1371
1596
921
1920
990
1614
1467
960
1947
939
1707
1299
1179
1842
840
1827
1233
1248
1764
903
1839
1107
1425
1695
834
1920
1047
1470
1551
1005
1908
936
1680
1506
975
1875
912
1812
1242
1209
1791
846
1905
1131
1413
1470
924
1938
1062
1443
1536
966
1974
804
1710
1425
1092
1866
921
1770
1302
1191
1764
909
1905
1110
1359
1677
870
1899
1062
1506
1608
915
1917
1023
1575
1383
1044
1785
930
1803
1326
1149
1878
843
1881
1179
1260
1722
891
1926
1101
1398
1623
930
1866
1002
1677
1401
1053
1908
975
1650
1338
1152
1854
867
1803
1215
1365
1611
858
1920
1098
1416
1668
960
1950
1011
1632
1446
1155
1815
993
1752
1353
1080
1857
876
1842
1206
1170
1860
681
1947
1146
1347
1650
897
1932
1008
1623
1371
882
1905
1008
1743
1398
1155
1875
831
1860
1224
1248
1764
879
1899
1107
1413
1635
903
1926
1017
1554
1527
996
1941
945
1707
1353
1125
1830
909
1839
1257
1287
1728
981
1818
1185
1458
1509
1071
1731
1080
1557
1392
1203
1638
1107
1626
1296
1326
1578
1137
1635
1227
1401
1482
1170
1641
1191
1497
1416
1230
1620
1179
1563
1347
1305
1575
1191
1590
1287
1368
1521
1197
1608
1248
1428
1455
1227
1605
1215
1488
1392
1239
1587
1203
1545
1356
1317
1551
1212
1587
1290
1371
1497
1209
1593
1248
1425
1443
1233
1599
1224
1503
1392
1266
1572
1206
1545
1335
1332
1539
1215
1572
1287
1383
1497
1224
1587
1254
1422
1440
1242
1587
1236
1482
1392
1263
1560
1218
1542
1350
1323
1542
1215
1563
1305
1374
1500
1224
1581
1260
1425
1443
1239
1587
1227
1476
1398
1263
1569
1224
1521
1359
1311
1548
1218
1563
1311
1368
1500
1233
1575
1266
1422
1455
1242
1581
1248
1452
1404
1263
1572
1221
1512
1362
1302
1545
1221
1551
1326
1350
1515
1227
1572
1281
1392
1473
1236
1578
1245
1428
1419
1260
1575
1236
1497
1371
1278
1548
1218
1542
1335
1341
1521
1233
1557
1293
1392
1482
1242
1587
1251
1431
1434
1251
1575
1239
1482
1380
1281
1557
1230
1527
1347
1326
1530
1230
1557
1305
1383
1485
1233
1566
1263
1422
1440
1248
1578
1236
1464
1395
1275
1563
1230
1518
1356
1317
1539
1227
1548
1317
1374
1494
1242
1578
1275
1410
1455
1251
1578
1251
1452
1407
1266
1560
1233
1506
1359
1299
1533
1227
1545
1323
1359
1503
1239
1563
1287
1401
1467
1245
1569
1257
1446
1413
1263
1560
1242
1497
1368
1299
1545
1239
1542
1335
1347
1509
1233
1563
1290
1398
1482
1239
1563
1263
1434
1428
1260
1563
1251
1479
1383
1287
1542
1230
1533
1347
1329
1524
1239
1554
1302
1383
1485
1239
1566
1266
1419
1434
1257
1563
1248
1467
1386
1287
1551
1239
1518
1350
1320
1524
1239
1554
1314
1374
1482
1248
1563
1269
1407
1449
1248
1563
1248
1461
1401
1281
1548
1245
1512
1341
1311
1536
1239
1548
1317
1365
1491
1245
1551
1281
1410
1452
1257
1566
1254
1452
1401
1272
1557
1239
1506
1371
1305
1533
1236
1536
1329
1353
1500
1242
1554
1293
1401
1476
1257
1560
1263
1443
1416
1272
1560
1245
1485
1371
1299
1539
1245
1527
1338
1338
1518
1242
1551
1302
1392
1461
1257
1557
1269
1425
1428
1266
1557
1251
1464
1392
1296
1551
1242
1509
1347
1329
1518
1233
1548
1311
1380
1485
1248
1560
1281
1413
1452
1260
1560
1254
1449
1407
1278
1548
1242
1503
1356
1314
1530
1245
1533
1329
1368
1494
1248
1557
1290
1401
1452
1263
1563
1260
1446
1407
1281
1554
1248
1491
1368
1308
1530
1239
1530
1341
1347
1506
1236
1548
1299
1389
1464
1251
1551
1269
1437
1425
1263
1566
1251
1467
1383
1299
1539
1242
1512
1347
1338
1515
1242
1545
1317
1380
1476
1254
1557
1281
1419
1434
1263
1560
1248
1467
1392
1293
1545
1245
1500
1347
1320
1515
1245
1533
1326
1368
1494
1257
1551
1284
1410
1455
1266
1554
1254
1443
1407
1278
1551
1248
1488
1365
1305
1527
1245
1524
1332
1356
1497
1245
1545
1296
1401
1467
1263
1551
1263
1440
1419
1272
1548
1254
1479
1377
1302
1542
1254
1518
1359
1335
1509
1251
1551
1311
1395
1464
1263
1551
1290
1419
1425
1272
1554
1251
1461
1386
1296
1536
1254
1509
1356
1332
1518
1242
1539
1320
1374
1485
1254
1551
1278
1413
1440
1275
1554
1251
1449
1395
1296
1545
1245
1494
1356
1311
1524
1248
1530
1326
1362
1488
1254
1554
1296
1404
1455
1263
1557
1266
1443
1407
1281
1542
1260
1488
1371
1305
1530
1248
1518
1335
1347
1500
1257
1539
1308
1398
1464
1260
1545
1281
1434
1419
1278
1548
1257
1473
1380
1302
1518
1248
1509
1344
1335
1503
1245
1542
1314
1377
1476
1263
1548
1278
1428
1437
1272
1557
1254
1458
1392
1299
1542
1254
1500
1353
1323
1518
1242
1536
1326
1374
1479
1257
1548
1293
1416
1449
1269
1548
1269
1446
1401
1284
1539
1251
1485
1359
1317
1527
1248
1533
1332
1353
1488
1254
1539
1296
1404
1461
1266
1551
1269
1437
1407
1287
1542
1257
1482
1374
1314
1524
1251
1518
1344
1347
1500
1254
1539
1308
1389
1464
1269
1548
1287
1425
1428
1278
1545
1257
1464
1380
1305
1530
1254
1503
1350
1332
1494
1257
1533
1320
1386
1464
1260
1542
1284
1416
1437
1275
1548
1266
1455
1392
1293
1539
1257
1491
1353
1323
1515
1257
1530
1329
1371
1488
1257
1545
1293
1410
1449
1272
1548
1269
1446
1407
1287
1539
1257
1479
1365
1314
1521
1254
1515
1341
1359
1488
1257
1536
1305
1398
1452
1275
1545
1278
1437
1416
1287
1539
1266
1470
1374
1314
1521
1251
1515
1344
1344
1503
1254
1539
1314
1389
1467
1281
1539
1278
1425
1428
1287
1542
1257
1461
1380
1305
1533
1260
1494
1359
1326
1509
1257
1527
1323
1383
1476
1263
1539
1293
1419
1440
1278
1539
1266
1449
1395
1290
1536
1257
1491
1353
1332
1509
1260
1518
1329
1365
1485
1263
1521
1296
1407
1452
1269
1542
1278
1440
1410
1287
1533
1254
1476
1365
1320
1515
1257
1518
1332
1353
1491
1260
1536
1308
1404
1452
1272
1536
1278
1434
1422
1284
1542
1263
1461
1374
1311
1521
1257
1503
1341
1341
1497
1254
1533
1317
1386
1464
1272
1536
1287
1425
1428
1281
1545
1272
1464
1383
1305
1530
1260
1494
1347
1329
1506
1260
1521
1317
1374
1479
1275
1539
1290
1416
1443
1278
1542
1272
1452
1398
1302
1527
1239
1485
1356
1326
1506
1257
1512
1329
1368
1482
1269
1530
1299
1404
1446
1278
1536
1278
1437
1407
1293
1533
1260
1476
1365
1320
1512
1275
1509
1338
1347
1491
1260
1530
1314
1392
1458
1278
1536
1287
1431
1416
1290
1539
1266
1464
1374
1323
1524
1263
1506
1347
1341
1500
1266
1524
1314
1386
1461
1275
1533
1284
1428
1431
1290
1530
1260
1458
1383
1311
1530
1260
1491
1350
1335
1500
1260
1518
1326
1371
1473
1269
1530
1293
1419
1434
1284
1533
1272
1446
1401
1299
1524
1260
1485
1362
1329
1506
1266
1518
1329
1362
1485
1248
1527
1305
1407
1443
1284
1533
1275
1446
1404
1299
1530
1266
1470
1362
1329
1509
1260
1509
1335
1356
1488
1263
1533
1317
1401
1455
1281
1536
1281
1440
1413
1299
1533
1269
1467
1380
1317
1518
1257
1497
1341
1350
1491
1272
1533
1317
1395
1455
1275
1533
1284
1431
1428
1293
1536
1266
1455
1380
1296
1515
1263
1491
1347
1341
1494
1263
1527
1320
1377
1467
1272
1530
1299
1413
1431
1290
1536
1275
1443
1395
1299
1527
1260
1476
1368
1332
1512
1263
1506
1335
1365
1482
1266
1527
1311
1401
1446
1272
1533
1284
1431
1422
1293
1536
1266
1455
1380
1320
1515
1260
1491
1350
1338
1494
1263
1527
1320
1383
1467
1272
1533
1299
1422
1431
1299
1527
1272
1446
1395
1305
1524
1263
1479
1362
1332
1506
1266
1512
1329
1365
1476
1272
1530
1308
1398
1443
1290
1527
1284
1437
1413
1302
1527
1260
1464
1374
1323
1512
1260
1497
1347
1350
1491
1260
1518
1323
1386
1458
1278
1527
1296
1419
1428
1293
1527
1272
1458
1395
1305
1521
1266
1485
1356
1338
1506
1266
1515
1329
1368
1479
1269
1533
1308
1407
1437
1287
1533
1281
1443
1413
1302
1527
1272
1464
1374
1326
1512
1260
1497
1347
1350
1494
1269
1527
1320
1386
1461
1278
1536
1296
1419
1431
1287
1530
1269
1446
1389
1308
1512
1269
1467
1359
1314
1512
1257
1515
1335
1359
1491
1251
1536
1311
1374
1470
1263
1539
1284
1407
1452
1263
1560
1260
1437
1410
1263
1581
1245
1488
1386
1275
1575
1203
1539
1356
1314
1548
1200
1581
1305
1338
1533
1209
1602
1254
1395
1488
1188
1623
1212
1467
1446
1200
1629
1194
1536
1398
1284
1602
1173
1575
1323
1311
1569
1182
1620
1233
1380
1539
1110
1638
1215
1461
1362
1164
1728
1164
1479
1455
1188
1674
1116
1602
1302
1257
1740
963
1689
1302
1224
1656
1047
1794
1149
1416
1560
1020
1782
1149
1452
1497
1122
1833
1035
1674
1413
1149
1782
972
1776
1224
1236
1722
906
1854
1152
1368
1626
939
1869
1062
1506
1530
1029
1854
999
1677
1362
1167
1788
846
1839
1368
1167
1734
927
1893
1089
1479
1590
912
1929
900
1605
1479
1047
1809
960
1737
1344
1137
1827
852
1869
1230
1296
1710
924
1902
1062
1494
1569
924
1923
948
1587
1455
1071
1857
879
1791
1293
1194
1791
909
1878
1125
1365
1737
816
2004
984
1524
1563
966
1926
960
1686
1371
1056
1902
858
1806
1266
1230
1752
864
1902
1107
1398
1656
762
1983
954
1572
1539
1035
1914
933
1725
1305
1143
1857
846
1866
1179
1242
1695
864
1932
1098
1416
1608
915
1941
972
1608
1476
966
1920
861
1773
1332
1143
1833
843
1878
1173
1314
1701
864
1980
1029
1437
1578
885
1962
957
1650
1476
978
1893
900
1836
1212
1161
1830
852
1899
1149
1275
1722
879
1866
996
1515
1572
957
1962
984
1587
1452
1059
1953
816
1851
1272
1011
1863
798
1917
1122
1305
1710
822
2010
1026
1536
1587
915
1914
915
1740
1437
996
1962
852
1821
1293
1128
1839
873
1878
1125
1362
1668
843
2016
1008
1488
1605
915
1977
876
1719
1449
1053
1929
831
1800
1191
1188
1842
828
1986
1077
1323
1761
813
1986
1005
1536
1605
798
1992
939
1698
1434
978
1962
864
1836
1257
1185
1830
828
1950
1119
1335
1716
846
1989
993
1512
1587
879
2016
897
1659
1545
966
1980
759
1836
1335
1125
1851
801
1923
1122
1350
1716
786
2007
1029
1470
1581
840
2037
870
1650
1449
1056
1923
891
1779
1317
1131
1818
819
1926
1146
1263
1767
759
2004
1011
1515
1599
900
2109
831
1674
1497
969
1938
864
1818
1356
957
1824
828
1923
1230
1236
1746
831
1977
1014
1527
1599
909
2052
837
1677
1476
1062
1881
873
1836
1224
1122
1875
810
1986
1053
1362
1728
840
1956
1035
1509
1602
888
2010
954
1722
1440
1014
1968
831
1764
1335
1098
1878
825
1896
1155
1308
1692
813
2061
1002
1479
1638
834
2058
822
1626
1398
1029
1950
864
1785
1284
1131
1875
771
1893
1122
1266
1740
822
2022
1050
1455
1599
909
1998
903
1707
1452
1023
2010
822
1809
1320
1134
1872
837
1887
1194
1197
1779
822
2004
1041
1524
1596
864
2022
936
1632
1494
1020
1968
834
1779
1332
1146
1866
819
1893
1170
1269
1761
738
2019
1071
1476
1584
873
2019
984
1614
1503
942
1968
867
1785
1323
1050
1875
837
1914
1221
1086
1809
825
1974
1059
1422
1638
879
2001
945
1644
1413
984
1971
864
1791
1389
1038
1917
840
1905
1170
1242
1752
831
1965
1044
1485
1608
873
1995
963
1557
1497
948
1962
882
1743
1353
1113
1785
852
1932
1164
1212
1791
840
1992
1047
1356
1671
849
2010
963
1563
1515
999
1938
900
1758
1383
990
1959
807
1878
1173
1227
1791
798
1968
960
1449
1701
801
2013
966
1608
1509
933
1974
942
1707
1335
1104
1905
807
1872
1161
1206
1806
855
1830
1110
1368
1692
843
1998
927
1587
1530
963
1971
894
1767
1227
1116
1914
843
1878
1242
1041
1797
843
1953
1089
1371
1668
822
1998
933
1572
1566
948
1956
897
1755
1410
1038
1926
831
1836
1230
1167
1851
792
1983
1050
1392
1707
840
2034
939
1527
1590
921
2025
888
1710
1419
1023
1893
819
1857
1263
1152
1863
768
1935
1092
1341
1686
828
1929
1041
1482
1605
918
1968
924
1731
1329
1044
1905
879
1872
1263
1152
1893
765
1941
1140
1296
1731
813
2013
1002
1524
1602
885
2019
906
1665
1515
957
1953
873
1737
1296
1152
1860
798
1929
1140
1245
1743
825
1968
1065
1434
1650
876
2001
1017
1485
1494
1014
1953
933
1689
1320
1137
1860
843
1914
1002
1326
1746
813
1980
984
1413
1653
894
1998
903
1674
1482
972
1962
858
1800
1275
1128
1848
804
1935
1158
1278
1764
783
1995
1023
1485
1644
768
1956
948
1695
1443
987
1974
849
1815
1311
1152
1893
855
1938
1182
1230
1776
825
1920
1059
1473
1605
807
2061
888
1692
1524
999
1956
861
1770
1335
1041
1908
822
1905
1164
1272
1794
831
1971
1119
1305
1686
882
2013
912
1584
1503
987
1968
873
1806
1266
1113
1911
828
1809
1176
1230
1767
837
1938
1038
1455
1563
813
2031
924
1614
1515
954
1941
885
1749
1359
1080
1968
651
1827
1233
1215
1779
819
1923
1062
1446
1611
852
2025
942
1638
1548
915
1992
867
1752
1371
1077
1902
822
1890
1185
1233
1776
774
1938
1089
1422
1623
840
2004
966
1563
1509
936
1977
918
1725
1359
1053
1944
861
1854
1161
1263
1761
888
1830
1116
1401
1674
822
2019
966
1626
1479
954
1959
894
1659
1437
1068
1899
846
1887
1197
1224
1797
825
1971
1035
1380
1734
813
2040
957
1602
1554
945
1977
897
1677
1365
1101
1923
822
1902
1206
1224
1806
855
1959
1074
1401
1683
843
1971
888
1614
1551
948
1980
927
1665
1377
1083
1920
828
1965
1014
1224
1821
816
1956
1107
1356
1686
837
1992
972
1629
1530
960
1980
897
1728
1416
1038
1941
837
1872
1176
1227
1794
813
1944
1119
1356
1680
780
1995
993
1593
1542
861
2004
909
1713
1407
1077
1917
837
1809
1263
1173
1830
828
1953
1128
1323
1722
831
1998
882
1593
1599
957
1977
927
1704
1383
1029
1953
831
1848
1251
1173
1833
813
1950
1113
1323
1737
813
1989
978
1548
1599
918
2010
945
1620
1467
1023
1971
786
1836
1302
1122
1902
783
1926
1140
1296
1731
831
2001
987
1458
1656
825
2001
939
1608
1461
1023
1932
846
1821
1314
1020
1893
816
1914
1161
1245
1701
852
2028
1008
1464
1641
879
2004
954
1602
1518
969
1956
894
1818
1341
1098
1893
813
1917
1128
1266
1689
723
1938
1062
1464
1635
846
2013
936
1587
1536
1023
1851
879
1791
1338
1056
1878
858
1839
1182
1263
1764
813
1989
1101
1377
1644
867
2007
993
1626
1494
957
1905
903
1770
1365
1107
1908
783
1884
1188
1212
1695
849
1965
1047
1440
1698
777
1995
948
1680
1437
984
1980
888
1743
1350
1092
1932
738
1959
1173
1248
1782
828
1953
1032
1431
1728
783
1968
972
1620
1515
915
1989
861
1692
1353
1065
1914
849
1797
1206
1233
1779
807
1977
1095
1437
1662
891
1989
978
1635
1527
990
1947
906
1761
1347
1083
1848
837
1887
1167
1194
1833
795
1926
1089
1422
1659
846
1974
954
1575
1551
960
1899
918
1773
1383
1026
1920
795
1884
1200
1209
1740
777
1968
1074
1410
1668
831
2031
936
1602
1548
894
1986
918
1728
1380
1080
1953
774
1860
1209
1218
1791
834
1974
1005
1428
1677
819
1974
945
1602
1524
948
2034
828
1725
1410
1092
1911
849
1851
1218
1206
1809
795
1953
1137
1335
1656
762
2025
879
1596
1548
945
1983
951
1665
1371
1092
1893
843
1851
1233
1206
1815
822
1971
1008
1398
1677
828
1977
984
1587
1506
957
1974
912
1665
1398
1068
1911
795
1902
1266
1083
1839
819
1956
1086
1383
1698
834
2079
873
1617
1527
933
1998
903
1740
1368
1053
1926
1026
1647
1266
1218
1809
801
1938
1119
1353
1713
843
2010
960
1590
1611
855
2007
909
1752
1383
1059
1914
837
1878
1242
1230
1764
831
1992
1017
1365
1695
834
1947
948
1560
1590
849
2010
864
1740
1374
1062
1935
834
1866
1233
1173
1824
801
1944
1074
1344
1695
825
2001
954
1575
1545
951
1971
885
1776
1326
1047
1953
834
1833
1233
1206
1854
735
1980
1083
1395
1689
801
1962
990
1563
1563
960
2016
945
1683
1407
1059
1905
849
1872
1248
1152
1890
789
1953
1098
1359
1659
825
2031
969
1587
1569
891
2025
885
1707
1398
1074
1908
855
1845
1233
1149
1872
792
1968
1119
1344
1698
831
2001
984
1581
1548
867
1968
891
1734
1395
1071
1905
843
1881
1239
1137
1809
795
1920
1122
1323
1686
834
2121
795
1599
1590
924
2013
918
1704
1419
1041
1971
825
1830
1212
1176
1821
1041
1677
1191
1386
1704
822
1986
978
1539
1557
933
1941
903
1719
1365
1050
1941
852
1830
1266
1080
1854
807
1959
1080
1380
1695
837
1989
993
1536
1602
924
1995
885
1719
1374
1062
1974
771
1854
1269
1062
1857
816
1950
1116
1329
1737
807
1971
1068
1509
1617
939
1965
912
1656
1413
1014
1977
861
1791
1329
1035
1866
816
1932
1116
1311
1743
831
1920
1041
1476
1641
894
2007
930
1671
1470
987
1938
840
1851
1287
1092
1872
819
1845
1155
1266
1770
684
1968
1056
1473
1632
876
1995
990
1662
1494
981
1971
819
1737
1359
1119
1887
852
1914
1083
1293
1782
807
1992
1020
1500
1572
888
2025
906
1554
1515
987
1995
777
1809
1344
1092
1791
849
1899
1161
1278
1737
849
1953
1020
1503
1626
759
2019
927
1728
1356
1005
1980
807
1809
1398
1026
1938
879
1770
1170
1293
1746
819
1989
1032
1401
1677
609
2010
957
1650
1485
990
1923
852
1806
1323
1116
1875
861
1935
1134
1284
1677
843
2001
1032
1479
1632
864
2034
834
1662
1407
1029
1977
849
1860
1233
1155
1800
834
1953
1104
1311
1773
810
1992
1026
1551
1398
921
2022
909
1677
1467
1014
1944
864
1815
1275
1161
1848
810
1857
1158
1332
1758
816
2022
963
1632
1503
882
2019
891
1737
1431
1014
1944
885
1812
1158
1170
1842
735
1968
1089
1302
1722
822
1962
963
1578
1581
954
1989
864
1770
1428
984
1950
795
1869
1266
1257
1776
789
1983
1077
1311
1725
735
2007
993
1548
1569
996
1947
918
1794
1335
1059
1947
837
1857
1227
1167
1818
804
1968
1026
1455
1524
870
1938
993
1557
1587
918
1983
900
1698
1386
1041
1896
837
1854
1230
1173
1806
813
1941
1101
1350
1674
813
1995
984
1560
1563
915
1977
909
1704
1410
1062
1920
867
1833
1263
1242
1767
894
1887
1131
1422
1590
1029
1797
1050
1563
1386
1143
1704
1068
1638
1290
1275
1626
1098
1680
1212
1392
1530
1131
1683
1164
1485
1437
1185
1653
1158
1572
1368
1260
1614
1155
1608
1296
1341
1548
1155
1638
1230
1413
1470
1188
1632
1200
1488
1407
1227
1614
1185
1560
1359
1296
1578
1185
1593
1296
1359
1527
1188
1620
1236
1416
1464
1209
1620
1212
1473
1410
1239
1605
1194
1551
1362
1293
1575
1188
1590
1302
1335
1527
1194
1611
1257
1401
1470
1203
1620
1218
1467
1419
1236
1605
1200
1521
1362
1281
1584
1191
1575
1314
1347
1530
1206
1596
1266
1395
1479
1206
1611
1227
1449
1416
1233
1602
1209
1518
1371
1272
1578
1197
1563
1323
1332
1536
1200
1587
1272
1389
1497
1206
1602
1230
1443
1437
1230
1602
1215
1503
1377
1263
1584
1203
1560
1347
1317
1551
1209
1584
1290
1374
1500
1209
1590
1254
1425
1443
1221
1596
1221
1479
1395
1251
1596
1206
1539
1353
1305
1554
1200
1572
1311
1368
1512
1215
1587
1263
1410
1458
1218
1593
1224
1461
1410
1254
1581
1209
1521
1365
1293
1563
1206
1560
1314
1353
1521
1212
1584
1272
1401
1473
1221
1596
1233
1443
1416
1251
1584
1218
1512
1368
1281
1566
1209
1551
1332
1347
1530
1215
1572
1278
1392
1485
1221
1596
1239
1431
1425
1242
1587
1224
1491
1374
1278
1563
1218
1554
1338
1326
1533
1218
1578
1293
1380
1491
1221
1581
1254
1434
1443
1239
1587
1233
1479
1380
1272
1572
1221
1533
1353
1314
1542
1221
1566
1296
1356
1503
1227
1578
1269
1413
1458
1233
1590
1239
1458
1395
1266
1572
1224
1518
1359
1299
1551
1218
1560
1317
1356
1506
1218
1575
1266
1401
1473
1239
1590
1242
1452
1413
1260
1578
1227
1488
1365
1296
1551
1221
1548
1329
1335
1527
1221
1563
1287
1398
1476
1239
1584
1248
1446
1431
1245
1572
1227
1488
1383
1281
1554
1221
1533
1341
1329
1527
1212
1563
1299
1383
1488
1233
1572
1257
1428
1437
1248
1578
1236
1476
1380
1272
1566
1233
1518
1353
1323
1533
1221
1566
1314
1368
1497
1236
1569
1272
1407
1446
1245
1569
1242
1455
1407
1266
1554
1233
1545
1278
1428
1464
1254
1581
1254
1491
1467
1350
1440
1254
1521
1365
1296
1572
1197
1521
1347
1320
1452
1227
1575
1320
1398
1491
1206
1644
1191
1461
1473
1158
1626
1245
1500
1380
1266
1668
1053
1590
1368
1230
1581
1194
1623
1233
1419
1341
1137
1695
1263
1365
1515
1218
1590
1224
1464
1440
1281
1641
1191
1584
1362
1239
1683
1059
1611
1320
1365
1461
1182
1707
1200
1410
1521
1140
1689
1200
1437
1476
1176
1632
1140
1578
1404
1185
1689
1173
1449
1317
1383
1602
1113
1680
1230
1371
1572
1071
1650
1263
1383
1455
1173
1662
1086
1554
1404
1215
1704
1101
1542
1356
1317
1674
1104
1692
1278
1284
1683
1068
1608
1221
1485
1539
1149
1686
1143
1590
1365
1194
1728
1089
1674
1308
1224
1686
1101
1689
1272
1329
1512
1065
1767
1185
1386
1590
1026
1800
1197
1560
1428
1173
1767
1020
1659
1557
993
1788
1095
1809
1197
1341
1620
1029
1767
1269
1263
1656
1023
1710
1221
1374
1572
1086
1764
1107
1611
1503
1068
1806
1020
1515
1434
1203
1749
1044
1770
1047
1392
1692
993
1791
1329
1305
1728
963
1845
1191
1485
1458
1035
1737
1143
1623
1509
957
1800
1089
1425
1335
1176
1671
1005
1803
1155
1437
1581
990
1869
960
1533
1608
972
1851
1050
1323
1494
1158
1713
1065
1725
1320
1200
1737
1098
1527
1302
1338
1641
1074
1815
993
1491
1548
987
1797
1104
1542
1215
1191
1839
1068
1638
1332
1248
1497
1053
1866
1119
1287
1650
978
1812
1305
1407
1659
1035
1851
1086
1497
1560
972
1806
1050
1584
1353
1242
1740
951
1812
1323
1242
1692
954
1890
1203
1323
1647
996
1734
1128
1455
1437
1092
1860
1002
1596
1410
1116
1830
753
1716
1365
1293
1458
1038
1752
1272
1221
1704
1017
1797
1095
1425
1593
1014
1755
1119
1500
1521
1125
1743
1008
1788
1407
1197
1875
987
1707
1275
1413
1623
966
1713
1221
1362
1674
1014
1875
1167
1506
1542
945
1941
1080
1527
1431
1200
1656
1056
1740
1182
1236
1710
978
1833
1290
1257
1617
798
1875
1146
1515
1530
918
1884
1065
1413
1500
1227
1689
831
1734
1158
1263
1692
903
1842
1449
1014
1761
1095
1530
1011
1425
1575
951
1809
1080
1605
1281
1146
1986
855
1842
1251
1221
1893
1182
1371
1371
1104
1524
984
2061
645
1422
1620
987
2016
903
1515
1260
1131
1923
1179
1470
1572
951
1800
1161
1434
1377
1164
1650
1059
1815
1251
1242
1749
960
1806
1068
1482
1638
1053
2013
1365
1518
1593
1182
1818
1113
1611
1293
1101
1899
861
1878
1362
1056
1797
891
1878
1116
1494
1419
969
2007
669
1734
1743
783
2052
993
1764
1437
1104
1821
597
1812
1314
858
1800
1023
1698
1128
1476
1419
1014
1857
1101
1401
1458
1131
1815
999
1482
1386
1221
1704
999
1776
1209
1281
1662
1002
1893
1281
1350
1662
1047
1851
1191
1395
1569
1074
1857
1146
1653
1236
1074
1743
984
1776
1212
1272
1710
954
1650
1140
1473
1635
1011
1791
1026
1617
1419
1017
1878
996
1701
1356
1134
1803
909
1803
1245
1263
1725
927
1827
1125
1410
1608
948
1875
1047
1554
1494
1056
1836
999
1668
1362
1170
1770
1005
1719
1245
1326
1638
1089
1722
1182
1455
1449
1167
1653
1164
1527
1359
1278
1566
1194
1575
1311
1350
1518
1218
1575
1263
1413
1446
1239
1569
1248
1491
1401
1275
1557
1242
1515
1362
1329
1524
1230
1545
1311
1371
1485
1242
1551
1287
1419
1440
1254
1542
1260
1458
1398
1269
1542
1254
1506
1371
1323
1515
1239
1533
1338
1371
1485
1257
1545
1287
1407
1446
1260
1536
1269
1428
1407
1290
1536
1260
1485
1368
1311
1518
1254
1521
1344
1353
1491
1260
1536
1305
1392
1458
1269
1539
1272
1425
1416
1284
1533
1278
1464
1377
1299
1530
1269
1497
1359
1344
1506
1260
1518
1326
1377
1467
1266
1536
1293
1407
1431
1272
1533
1263
1440
1404
1296
1515
1269
1482
1371
1314
1512
1266
1509
1344
1365
1485
1266
1524
1317
1395
1458
1275
1530
1293
1419
1422
1287
1530
1281
1458
1377
1311
1509
1269
1491
1356
1353
1500
1272
1527
1332
1377
1467
1278
1515
1305
1404
1440
1284
1542
1281
1440
1389
1302
1524
1275
1470
1371
1317
1521
1284
1506
1338
1359
1488
1257
1518
1326
1392
1461
1278
1530
1296
1428
1419
1287
1485
1281
1449
1395
1311
1512
1278
1485
1365
1329
1500
1269
1509
1338
1371
1470
1281
1521
1311
1410
1440
1284
1521
1281
1431
1413
1299
1524
1272
1467
1386
1317
1515
1272
1497
1347
1362
1482
1275
1506
1326
1386
1455
1278
1524
1293
1419
1428
1299
1536
1275
1443
1389
1317
1512
1275
1482
1356
1338
1491
1278
1518
1335
1371
1470
1275
1521
1305
1401
1443
1290
1527
1290
1425
1401
1302
1515
1278
1467
1374
1332
1506
1278
1494
1350
1356
1479
1275
1506
1326
1389
1452
1284
1521
1311
1416
1419
1299
1515
1287
1440
1383
1311
1509
1275
1482
1359
1335
1494
1272
1497
1347
1368
1473
1281
1518
1311
1401
1452
1293
1512
1293
1425
1410
1299
1512
1281
1455
1380
1323
1503
1275
1482
1356
1341
1488
1275
1497
1338
1380
1458
1290
1515
1308
1407
1437
1293
1515
1296
1431
1404
1302
1509
1272
1458
1380
1335
1494
1287
1491
1350
1344
1476
1281
1515
1332
1386
1452
1296
1515
1311
1413
1428
1296
1521
1296
1437
1392
1305
1515
1284
1476
1368
1329
1497
1278
1497
1347
1356
1476
1278
1509
1335
1392
1452
1290
1518
1302
1422
1431
1302
1509
1287
1443
1389
1311
1500
1284
1479
1368
1338
1485
1278
1494
1338
1368
1473
1290
1503
1323
1410
1443
1299
1512
1299
1425
1416
1305
1497
1287
1455
1386
1329
1500
1287
1473
1365
1344
1488
1284
1503
1332
1374
1452
1290
1509
1320
1404
1437
1296
1512
1296
1425
1407
1311
1506
1299
1443
1383
1323
1500
1281
1473
1359
1347
1476
1281
1503
1335
1377
1461
1296
1512
1320
1398
1431
1299
1497
1281
1431
1467
1254
1515
1335
1413
1374
1314
1656
1227
1440
1320
1335
1533
1338
1395
1449
1284
1572
1254
1482
1266
1311
1692
1062
1626
1404
1323
1686
1260
1437
1269
1548
1461
1215
1680
1131
1455
1671
882
1806
1317
1977
1167
1293
1581
1152
1485
1788
909
1695
975
1803
1227
1317
1392
1197
1824
1008
1527
1587
1233
1854
861
1575
1413
1155
1794
1071
1332
1308
1071
1521
1170
1506
1212
1494
1509
684
2064
771
1764
1053
1218
1812
1053
1716
1308
1227
1359
960
1923
1056
1362
1707
996
1839
1095
1482
1608
1137
1953
921
1719
1452
1173
1728
1008
1533
1488
1218
1590
1137
1764
1032
1374
1671
999
1827
1110
1647
1257
1044
1968
930
1590
1401
1254
1731
1143
1269
1377
1440
1491
897
1869
870
1425
1665
762
1878
1308
1092
1821
864
1908
1062
1641
1392
1227
1680
1212
1299
1290
1410
1692
930
1773
1206
1461
1917
552
1932
1365
1509
1572
939
1857
1035
1500
1431
1164
1635
912
1938
1305
1248
1647
951
2043
978
1398
1893
930
1983
942
1566
1608
807
1869
1062
1644
1356
1161
1908
594
1899
1254
1260
1716
963
1788
1266
1347
1749
900
1884
1098
1626
1536
825
1902
1080
1668
903
1236
1890
909
1770
1425
1083
1677
966
1818
1185
1434
1632
1191
1692
1164
1491
1611
1101
1803
987
1731
1047
1188
1851
1044
1740
1314
1260
1737
837
1881
1257
1494
1662
1008
1752
1161
1482
1461
1029
1854
1071
1581
1380
1233
1665
1128
1611
1080
1314
1965
696
1908
1173
1449
1638
1383
1839
1143
1557
1503
1050
1899
1155
1413
1443
1122
1809
960
1602
1320
1098
1785
753
1872
1107
1371
1659
1029
1776
1023
1560
1521
1020
1884
1023
1704
1407
1101
1938
729
1740
1332
1071
1782
924
1854
1140
1338
1596
894
1839
996
1518
1521
873
2070
936
1629
1557
966
1884
1095
1371
1359
1287
1683
960
1827
1212
1302
1653
978
1998
993
1503
1587
933
1899
1005
1599
1602
1050
1737
972
1734
1299
1140
1968
723
1860
1302
1200
1893
702
1818
1155
1395
1635
933
1746
999
1626
1560
1068
1779
1224
1398
1437
1125
1848
981
1791
1335
1218
1773
954
1605
1176
1374
1680
825
1902
1032
1563
1431
978
1983
966
1788
1362
1143
1872
939
1728
1290
1203
1770
1047
1800
1179
1215
1698
939
1980
945
1512
1512
978
1917
1146
1560
1563
1020
1899
894
1692
1302
1167
1674
903
1890
1158
1098
1719
987
1872
1017
1443
1620
915
1992
897
1608
1515
1035
1998
861
1707
1383
1173
1905
864
1833
1269
1254
1704
1035
1818
960
1446
1650
873
1926
1035
1497
1506
1011
2034
726
1764
1473
1110
1848
927
1908
1203
1227
1776
903
1962
1062
1356
1671
891
1908
1110
1509
1539
1032
1809
1059
1599
1380
1029
1893
972
1758
1293
1182
1785
927
1752
1227
1251
1647
951
1605
1149
1584
1548
993
1890
1008
1659
1455
867
1917
987
1719
1347
1146
1791
939
1869
1230
1134
1617
1017
1938
1104
1434
1608
933
1710
1005
1620
1512
1041
1875
966
1680
1407
939
1785
891
1851
1383
1074
1770
927
1812
1134
1428
1599
996
1953
1074
1593
1500
1026
1938
897
1719
1377
1107
1695
948
1863
1194
1272
1785
912
1887
1113
1311
1656
957
1857
1095
1542
1608
903
1920
972
1638
1431
1065
1920
957
1788
1350
1095
1767
876
1782
1023
1419
1716
774
1878
1200
1452
1632
939
1920
1044
1590
1503
1092
1710
912
1746
1320
1107
1809
927
1749
1278
1257
1641
894
1914
1098
1362
1608
945
1878
1026
1542
1539
933
1941
810
1755
1386
1116
1851
945
1740
1251
972
1833
912
1833
1188
1401
1599
939
1941
1047
1449
1623
984
1959
999
1659
1476
1035
1878
888
1743
1335
1179
1881
795
1821
1275
1263
1713
894
1902
1224
1431
1698
942
1902
1020
1572
1563
858
1896
996
1689
1386
1101
1863
837
1806
1308
1221
1776
867
1914
1167
1359
1626
897
1983
918
1560
1668
768
1938
1032
1533
1467
1080
1914
918
1767
1335
1053
1860
921
1899
942
1308
1752
903
1890
1053
1443
1746
777
1953
1041
1560
1494
1008
1917
933
1713
1413
936
1860
930
1830
1248
1224
1749
894
1866
1161
1305
1674
885
1968
1002
1569
1539
1038
1950
969
1635
1449
1080
1887
948
1671
1341
1233
1740
921
1851
1194
1275
1725
936
1911
1134
1491
1704
933
1965
1014
1605
1611
915
1968
912
1773
1299
1197
1743
960
1872
1122
1281
1722
858
1935
1257
1215
1764
1002
1941
1062
1506
1506
924
1866
990
1671
1506
1059
1818
933
1710
1332
1101
1830
990
1788
1254
1305
1680
996
1854
1110
1452
1662
858
1932
1011
1623
1476
990
1896
936
1716
1368
1116
1848
705
1869
1263
1218
1758
894
1899
1128
1422
1581
915
1917
1035
1527
1548
966
1914
966
1665
1404
1071
1860
930
1764
1281
1182
1791
897
1842
1170
1311
1671
918
1863
1074
1485
1569
999
1857
1026
1623
1449
1125
1788
1041
1698
1323
1284
1635
1065
1695
1221
1362
1527
1137
1659
1173
1500
1404
1227
1617
1170
1551
1335
1311
1539
1197
1575
1284
1371
1485
1221
1590
1257
1425
1437
1245
1569
1233
1491
1377
1281
1554
1230
1542
1353
1335
1524
1233
1569
1314
1383
1482
1242
1569
1263
1419
1440
1257
1554
1245
1473
1383
1281
1548
1230
1509
1347
1329
1527
1233
1551
1308
1371
1488
1230
1554
1275
1413
1443
1263
1554
1254
1455
1407
1284
1551
1257
1500
1362
1308
1527
1239
1527
1335
1359
1482
1245
1548
1302
1392
1464
1257
1563
1278
1440
1410
1269
1551
1260
1479
1374
1296
1530
1236
1530
1344
1347
1503
1242
1539
1314
1380
1470
1260
1548
1284
1422
1428
1272
1548
1251
1452
1392
1290
1542
1257
1500
1356
1323
1515
1251
1530
1341
1362
1488
1266
1545
1299
1398
1455
1263
1545
1272
1434
1419
1275
1548
1260
1464
1380
1296
1524
1254
1515
1338
1344
1497
1251
1530
1317
1377
1476
1254
1545
1287
1407
1443
1275
1539
1269
1452
1398
1284
1536
1251
1491
1371
1323
1518
1254
1524
1341
1356
1500
1260
1545
1305
1392
1470
1269
1545
1281
1443
1419
1278
1530
1266
1470
1383
1305
1530
1257
1506
1359
1332
1500
1263
1527
1335
1380
1476
1266
1539
1296
1413
1443
1272
1536
1269
1434
1401
1293
1533
1263
1491
1365
1311
1506
1254
1521
1338
1359
1491
1263
1533
1308
1392
1470
1266
1539
1287
1425
1419
1281
1536
1266
1452
1386
1305
1524
1269
1497
1359
1332
1506
1251
1521
1329
1374
1470
1272
1536
1299
1407
1446
1275
1536
1260
1434
1404
1299
1530
1260
1479
1371
1320
1518
1260
1506
1338
1347
1488
1260
1530
1302
1389
1452
1269
1527
1287
1401
1425
1272
1533
1272
1449
1386
1302
1503
1260
1488
1362
1329
1503
1260
1521
1335
1368
1476
1269
1533
1302
1404
1449
1275
1530
1281
1440
1404
1290
1527
1278
1461
1371
1320
1512
1266
1515
1347
1362
1488
1269
1527
1314
1395
1452
1284
1527
1293
1416
1419
1284
1539
1275
1452
1386
1311
1521
1263
1488
1359
1329
1503
1260
1527
1332
1377
1485
1272
1527
1296
1410
1446
1284
1527
1284
1434
1398
1296
1527
1275
1470
1371
1323
1503
1266
1497
1320
1356
1485
1272
1521
1314
1389
1452
1278
1521
1293
1428
1431
1302
1524
1272
1452
1383
1308
1512
1272
1467
1362
1332
1500
1260
1524
1332
1371
1470
1275
1521
1302
1404
1452
1290
1527
1281
1434
1398
1299
1518
1269
1473
1371
1329
1506
1266
1503
1347
1353
1485
1269
1503
1326
1395
1452
1278
1524
1293
1410
1419
1290
1527
1275
1449
1389
1317
1509
1275
1488
1356
1341
1497
1263
1509
1332
1356
1473
1281
1518
1299
1410
1434
1290
1527
1284
1440
1401
1299
1521
1284
1473
1377
1329
1503
1284
1500
1347
1356
1482
1272
1515
1314
1392
1455
1281
1524
1299
1407
1431
1293
1527
1278
1443
1395
1311
1512
1275
1482
1353
1332
1491
1272
1497
1353
1368
1470
1275
1515
1320
1398
1443
1287
1518
1302
1428
1416
1296
1521
1287
1455
1395
1314
1506
1275
1488
1362
1344
1491
1269
1512
1338
1374
1473
1275
1518
1299
1413
1440
1296
1524
1290
1437
1401
1308
1515
1275
1461
1377
1323
1500
1284
1497
1347
1362
1485
1275
1515
1326
1389
1452
1296
1521
1299
1419
1431
1293
1524
1284
1440
1401
1302
1512
1278
1470
1371
1329
1503
1278
1494
1347
1359
1482
1269
1515
1314
1392
1449
1287
1527
1311
1419
1425
1296
1527
1278
1437
1395
1320
1512
1281
1479
1362
1332
1500
1281
1500
1350
1380
1479
1284
1515
1317
1407
1437
1290
1524
1296
1434
1416
1302
1512
1281
1458
1386
1323
1503
1278
1482
1362
1341
1485
1275
1509
1335
1389
1467
1284
1512
1305
1413
1431
1293
1518
1296
1437
1407
1314
1518
1272
1467
1374
1323
1509
1275
1482
1350
1347
1482
1275
1509
1329
1389
1458
1287
1515
1305
1416
1413
1299
1512
1290
1440
1380
1314
1512
1284
1452
1365
1341
1497
1275
1491
1344
1350
1473
1272
1515
1320
1395
1452
1287
1518
1299
1419
1419
1296
1512
1281
1446
1407
1320
1509
1275
1473
1365
1341
1491
1281
1503
1338
1368
1470
1287
1497
1314
1398
1437
1296
1515
1296
1434
1410
1302
1512
1278
1452
1380
1326
1497
1281
1485
1353
1347
1482
1281
1509
1329
1380
1467
1275
1518
1305
1410
1431
1290
1518
1290
1434
1404
1302
1512
1281
1461
1362
1338
1497
1281
1491
1350
1359
1476
1278
1506
1326
1395
1452
1290
1509
1308
1419
1434
1305
1515
1287
1440
1401
1311
1503
1281
1467
1365
1341
1491
1275
1485
1341
1371
1473
1284
1506
1323
1401
1446
1302
1515
1299
1428
1413
1299
1509
1284
1443
1389
1326
1503
1275
1482
1350
1347
1488
1278
1500
1338
1371
1467
1293
1515
1317
1401
1449
1290
1515
1296
1422
1410
1302
1515
1281
1452
1377
1323
1503
1287
1479
1353
1347
1485
1281
1509
1326
1383
1455
1293
1512
1302
1416
1434
1317
1479
1296
1452
1428
1308
1503
1317
1428
1386
1320
1503
1275
1446
1377
1311
1515
1260
1488
1383
1299
1536
1212
1536
1320
1464
1455
1185
1575
1344
1341
1521
1233
1587
1182
1491
1476
1143
1749
1095
1530
1482
1161
1737
1107
1614
1353
1236
1773
1134
1560
1248
1326
1599
1038
1737
1200
1335
1677
1110
1689
1167
1533
1509
1089
1884
1035
1575
1440
1176
1707
1197
1533
1404
1206
1719
921
1758
1164
1314
1638
1068
1731
1194
1479
1254
1089
1839
1062
1518
1491
1113
1644
1173
1590
1305
1176
1845
921
1806
1239
1329
1629
987
1956
1032
1389
1593
1038
1887
1008
1560
1380
1143
1842
1020
1638
1356
1227
1584
975
1800
1206
1311
1758
789
1896
1206
1356
1605
1086
1746
1065
1650
1434
1089
1965
882
1779
1317
1218
1758
864
1824
1209
1371
1635
999
1617
1209
1467
1575
1035
1872
1014
1623
1419
1086
1869
933
1695
1302
1179
1725
915
1776
1158
1317
1671
933
1944
1038
1449
1569
1056
1818
1014
1641
1431
1077
1896
876
1683
1320
1236
1779
888
1809
1179
1335
1605
948
1932
1125
1458
1536
987
1890
972
1587
1527
1032
1836
1014
1707
1392
1185
1728
975
1791
1233
1275
1674
870
1854
1197
1344
1551
963
1938
1029
1572
1521
1062
1812
951
1626
1440
1044
1830
981
1695
1236
1365
1638
927
1809
1158
1389
1689
960
1872
1083
1551
1563
1008
1884
1020
1656
1371
1125
1896
894
1749
1407
960
1806
1014
1803
1161
1332
1596
924
1890
1089
1488
1482
987
1884
1020
1614
1458
999
1860
1020
1668
1302
1146
1761
969
1794
1224
1314
1548
927
1869
1065
1428
1656
840
1938
1119
1455
1506
1137
1788
930
1740
1377
1164
1794
930
1782
1263
1257
1806
798
1884
1155
1410
1515
951
1893
1107
1434
1632
933
1923
1062
1671
1368
1140
1833
939
1728
1317
1161
1767
945
1797
1212
1377
1608
1035
1755
1110
1404
1569
951
1875
1002
1644
1545
1023
1863
978
1698
1377
1200
1857
885
1815
1215
1239
1710
951
1758
1065
1368
1521
933
1917
1053
1572
1557
999
1914
936
1635
1326
1164
1794
924
1806
1200
1197
1749
954
1812
1209
1338
1662
906
1860
1074
1512
1563
999
1866
1026
1647
1401
1116
1863
948
1767
1266
1170
1818
936
1782
1215
1317
1632
933
1893
1122
1452
1647
1011
1902
927
1599
1488
1002
1896
948
1659
1314
1215
1764
939
1806
1221
1215
1761
810
1863
1113
1434
1500
939
1917
1032
1524
1551
1026
1854
969
1719
1362
1140
1869
798
1854
1197
1206
1776
912
1860
1086
1383
1641
939
1881
1065
1497
1551
951
1881
1059
1515
1407
1065
1920
879
1791
1341
1167
1779
924
1935
1056
1347
1656
945
1851
1083
1467
1596
951
1845
1110
1521
1443
999
1899
957
1788
1275
1062
1848
1002
1893
1290
1167
1746
984
1731
1149
1425
1587
951
1920
1101
1479
1488
1041
1938
906
1734
1371
1128
1926
837
1797
1338
1143
1761
1023
1791
1143
1269
1743
873
1974
960
1512
1566
909
1863
1053
1569
1464
1203
1689
972
1737
1278
1143
1854
852
1815
1197
1275
1671
951
1878
1098
1470
1638
969
1845
1062
1584
1497
1047
1962
843
1719
1377
1128
1818
906
1929
1047
1233
1776
909
1860
1140
1389
1641
861
1902
1089
1560
1578
1032
1902
1041
1692
1293
1119
1875
969
1710
1308
1194
1794
882
1917
1095
1350
1695
960
1746
1137
1479
1602
981
1878
1017
1596
1440
1032
1893
1011
1677
1353
1161
1791
903
1815
1323
1239
1782
957
1860
1146
1344
1647
942
1911
1062
1560
1425
1062
1905
963
1707
1383
1068
1821
963
1776
1197
1230
1764
924
1857
1125
1398
1692
834
1914
984
1539
1593
933
1932
978
1644
1485
1014
1869
954
1704
1293
1140
1791
921
1851
1155
1320
1617
897
1896
1086
1503
1542
993
1905
1029
1590
1464
945
1911
972
1722
1323
1083
1821
915
1935
1023
1341
1734
888
1878
1143
1443
1701
873
1959
1020
1554
1512
1005
1902
945
1629
1428
1023
1899
894
1863
1146
1254
1788
924
1830
1152
1368
1644
891
1887
1089
1494
1584
978
1902
1005
1623
1488
1161
1827
987
1746
1356
1134
1812
915
1860
1104
1305
1773
873
1896
1104
1437
1518
1017
1848
1002
1599
1479
1005
1926
918
1794
1296
1131
1866
816
1830
1239
1242
1695
912
1887
1128
1398
1668
807
1962
1071
1626
1452
996
1902
849
1734
1431
1116
1845
951
1779
1305
1185
1743
882
1956
1062
1371
1683
921
1899
1074
1506
1602
918
1947
1074
1632
1476
1077
1881
948
1641
1326
1164
1899
711
1851
1338
1119
1725
930
1881
990
1512
1575
957
1926
1020
1572
1515
1029
1899
918
1761
1269
1179
1887
834
1824
1236
1353
1560
1011
1767
1092
1431
1587
876
1950
1008
1590
1440
1053
1881
1041
1665
1326
1119
1875
936
1779
1341
1161
1785
927
1926
1128
1374
1593
921
1884
1080
1566
1557
1065
1836
1008
1692
1350
1107
1905
927
1761
1272
1167
1797
891
1761
1185
1302
1698
897
1899
1071
1479
1584
993
1836
1020
1623
1473
1041
1884
930
1728
1317
1149
1812
891
1824
1200
1269
1752
843
1947
1035
1464
1641
903
1911
1005
1590
1488
1014
1884
948
1701
1356
1110
1830
900
1815
1233
1233
1740
888
1869
1140
1383
1650
924
1899
1050
1536
1548
1020
1890
981
1653
1425
1173
1806
1074
1725
1266
1278
1545
1098
1668
1164
1422
1449
1164
1638
1179
1539
1389
1257
1596
1170
1581
1323
1326
1539
1185
1590
1257
1392
1473
1206
1593
1239
1449
1422
1260
1572
1227
1512
1374
1287
1566
1218
1551
1329
1329
1515
1224
1569
1281
1392
1479
1230
1581
1248
1440
1422
1257
1569
1230
1482
1383
1287
1551
1224
1542
1347
1335
1521
1233
1560
1305
1383
1482
1233
1581
1254
1434
1431
1251
1566
1236
1473
1386
1275
1566
1233
1524
1350
1320
1533
1230
1548
1314
1368
1482
1242
1560
1275
1419
1449
1257
1563
1248
1455
1404
1275
1554
1245
1509
1362
1311
1536
1236
1536
1329
1359
1500
1239
1557
1293
1398
1464
1245
1563
1257
1437
1422
1263
1554
1245
1485
1386
1293
1545
1242
1524
1344
1335
1512
1239
1554
1311
1383
1476
1245
1554
1275
1419
1437
1248
1557
1245
1461
1395
1290
1554
1245
1512
1356
1314
1530
1245
1542
1332
1374
1494
1251
1551
1284
1404
1455
1257
1557
1260
1437
1407
1272
1551
1254
1491
1371
1302
1536
1242
1521
1341
1353
1509
1251
1539
1311
1395
1470
1257
1557
1275
1425
1428
1266
1557
1239
1464
1389
1302
1542
1251
1509
1353
1323
1521
1251
1533
1326
1374
1479
1251
1548
1290
1407
1449
1266
1551
1263
1443
1416
1287
1545
1251
1491
1374
1308
1524
1242
1524
1347
1356
1500
1254
1545
1302
1395
1476
1257
1548
1272
1425
1416
1278
1551
1254
1467
1377
1299
1533
1248
1512
1356
1335
1518
1248
1539
1326
1377
1479
1260
1542
1287
1404
1449
1263
1551
1269
1449
1395
1284
1536
1254
1494
1368
1317
1518
1242
1524
1341
1356
1494
1254
1542
1299
1401
1464
1269
1542
1272
1431
1419
1272
1545
1260
1476
1383
1299
1530
1254
1500
1341
1338
1512
1257
1527
1317
1377
1470
1263
1539
1287
1425
1443
1263
1545
1266
1449
1386
1299
1539
1254
1491
1365
1314
1518
1251
1527
1332
1359
1488
1260
1533
1299
1404
1458
1266
1548
1275
1431
1416
1281
1539
1263
1473
1374
1302
1527
1251
1515
1350
1347
1506
1254
1533
1320
1392
1461
1275
1533
1287
1425
1431
1281
1554
1266
1458
1389
1302
1530
1260
1491
1365
1320
1518
1245
1527
1332
1371
1479
1269
1539
1296
1410
1452
1272
1542
1269
1446
1407
1296
1536
1263
1476
1371
1317
1518
1245
1512
1338
1353
1497
1263
1533
1308
1395
1458
1269
1533
1290
1422
1422
1278
1536
1266
1464
1383
1311
1527
1266
1491
1353
1332
1506
1260
1542
1329
1380
1488
1266
1539
1290
1407
1437
1278
1536
1266
1434
1401
1290
1527
1260
1488
1365
1314
1515
1260
1515
1338
1365
1500
1263
1533
1305
1395
1458
1272
1533
1281
1431
1416
1287
1539
1266
1467
1380
1308
1521
1260
1506
1347
1347
1497
1269
1524
1323
1383
1464
1272
1536
1287
1416
1434
1272
1536
1254
1452
1395
1302
1524
1263
1494
1362
1329
1506
1260
1515
1341
1371
1479
1272
1530
1293
1407
1449
1272
1542
1284
1443
1407
1287
1527
1260
1473
1374
1317
1518
1242
1512
1347
1347
1494
1266
1527
1314
1404
1452
1275
1542
1281
1434
1419
1284
1530
1272
1458
1383
1314
1515
1251
1503
1350
1338
1497
1263
1521
1323
1374
1467
1269
1530
1281
1410
1437
1290
1533
1272
1446
1383
1299
1524
1266
1491
1368
1323
1503
1263
1515
1338
1365
1482
1266
1527
1302
1404
1446
1281
1536
1281
1434
1404
1296
1530
1275
1464
1374
1326
1512
1263
1500
1341
1353
1485
1269
1524
1320
1392
1458
1275
1527
1287
1428
1428
1287
1533
1269
1458
1383
1308
1512
1266
1494
1356
1329
1500
1266
1524
1326
1383
1476
1269
1536
1296
1416
1446
1287
1527
1272
1446
1392
1308
1521
1269
1479
1374
1320
1509
1272
1512
1335
1362
1479
1269
1524
1305
1407
1443
1284
1536
1281
1431
1416
1296
1524
1269
1464
1362
1320
1518
1263
1500
1353
1350
1491
1251
1515
1326
1380
1461
1275
1524
1299
1422
1434
1290
1530
1266
1449
1404
1299
1521
1272
1485
1365
1332
1506
1266
1509
1347
1359
1479
1266
1518
1317
1395
1446
1284
1530
1293
1425
1422
1290
1530
1275
1455
1377
1308
1518
1260
1494
1350
1338
1497
1272
1521
1329
1377
1467
1275
1530
1302
1410
1440
1293
1524
1284
1443
1404
1299
1518
1260
1473
1371
1332
1506
1269
1497
1347
1350
1488
1275
1515
1317
1389
1458
1287
1515
1293
1422
1425
1296
1524
1272
1449
1389
1311
1512
1272
1488
1356
1332
1494
1281
1509
1338
1377
1476
1281
1524
1308
1407
1449
1290
1521
1281
1434
1410
1296
1524
1272
1464
1371
1329
1503
1269
1491
1338
1353
1485
1257
1524
1326
1380
1458
1284
1521
1293
1416
1428
1287
1521
1278
1449
1386
1302
1512
1272
1482
1374
1335
1500
1278
1500
1341
1371
1476
1278
1518
1317
1404
1446
1287
1521
